sample,time,code,chan
41316,20.173828125,63.0,-1.0
45425,22.18017578125,34.0,-1.0
46482,22.6962890625,42.0,-1.0
46529,22.71923828125,131.0,0.0
46608,22.7578125,131.0,2.0
46738,22.8212890625,132.0,0.0
47117,23.00634765625,131.0,0.0
47233,23.06298828125,132.0,0.0
47530,23.2080078125,131.0,0.0
47736,23.30859375,98.0,-1.0
48032,23.453125,133.0,2.0
48176,23.5234375,132.0,0.0
49549,24.19384765625,132.0,2.0
52661,25.71337890625,34.0,-1.0
53718,26.2294921875,35.0,-1.0
54034,26.3837890625,131.0,0.0
54218,26.4736328125,132.0,0.0
54507,26.61474609375,131.0,1.0
54586,26.6533203125,131.0,0.0
54644,26.681640625,131.0,3.0
54669,26.69384765625,132.0,0.0
54690,26.7041015625,162.0,-1.0
54869,26.79150390625,132.0,1.0
54950,26.8310546875,133.0,3.0
55325,27.01416015625,132.0,3.0
59624,29.11328125,34.0,-1.0
60681,29.62939453125,38.0,-1.0
61378,29.9697265625,131.0,1.0
61471,30.01513671875,131.0,3.0
61524,30.041015625,162.0,-1.0
61775,30.16357421875,133.0,3.0
61883,30.21630859375,132.0,1.0
63017,30.77001953125,132.0,3.0
66450,32.4462890625,34.0,-1.0
67507,32.96240234375,50.0,-1.0
68198,33.2998046875,131.0,0.0
68240,33.3203125,132.0,0.0
68254,33.3271484375,133.0,3.0
68254,33.3271484375,131.0,3.0
68288,33.34375,131.0,2.0
68305,33.35205078125,131.0,0.0
68431,33.41357421875,98.0,-1.0
68595,33.49365234375,132.0,0.0
68672,33.53125,133.0,2.0
68794,33.5908203125,132.0,3.0
69174,33.7763671875,132.0,2.0
73379,35.82958984375,34.0,-1.0
74436,36.345703125,35.0,-1.0
75046,36.6435546875,131.0,1.0
75114,36.6767578125,131.0,0.0
75123,36.68115234375,131.0,3.0
75185,36.71142578125,162.0,-1.0
75191,36.71435546875,132.0,0.0
75375,36.80419921875,132.0,1.0
75426,36.8291015625,133.0,3.0
75895,37.05810546875,132.0,3.0
80138,39.1298828125,34.0,-1.0
81195,39.64599609375,50.0,-1.0
81807,39.94482421875,131.0,0.0
81927,40.00341796875,131.0,2.0
81995,40.03662109375,132.0,0.0
82021,40.04931640625,131.0,0.0
82082,40.0791015625,98.0,-1.0
82095,40.08544921875,132.0,0.0
82258,40.1650390625,133.0,2.0
82702,40.3818359375,132.0,2.0
87032,42.49609375,34.0,-1.0
88089,43.01220703125,38.0,-1.0
88780,43.349609375,131.0,1.0
88867,43.39208984375,131.0,2.0
88898,43.4072265625,131.0,3.0
88961,43.43798828125,162.0,-1.0
89099,43.50537109375,132.0,1.0
89184,43.546875,133.0,3.0
89374,43.6396484375,133.0,2.0
89392,43.6484375,132.0,2.0
89505,43.70361328125,132.0,3.0
93893,45.84619140625,34.0,-1.0
94950,46.3623046875,38.0,-1.0
95523,46.64208984375,131.0,1.0
95628,46.693359375,131.0,2.0
95632,46.6953125,131.0,3.0
95684,46.720703125,162.0,-1.0
95819,46.78662109375,132.0,1.0
95896,46.82421875,133.0,3.0
96085,46.91650390625,133.0,2.0
96112,46.9296875,132.0,2.0
96279,47.01123046875,132.0,3.0
100617,49.12939453125,34.0,-1.0
101674,49.6455078125,42.0,-1.0
102203,49.90380859375,131.0,0.0
102263,49.93310546875,132.0,0.0
102311,49.95654296875,131.0,2.0
102323,49.96240234375,131.0,0.0
102405,50.00244140625,131.0,3.0
102493,50.04541015625,132.0,0.0
102512,50.0546875,98.0,-1.0
102607,50.10107421875,133.0,3.0
102646,50.1201171875,132.0,3.0
102660,50.126953125,133.0,2.0
103307,50.44287109375,132.0,2.0
107444,52.462890625,34.0,-1.0
108501,52.97900390625,50.0,-1.0
109024,53.234375,131.0,0.0
109147,53.29443359375,131.0,2.0
109173,53.30712890625,132.0,0.0
109203,53.32177734375,131.0,0.0
109228,53.333984375,131.0,3.0
109296,53.3671875,98.0,-1.0
109330,53.3837890625,133.0,3.0
109347,53.39208984375,132.0,0.0
109380,53.408203125,132.0,3.0
109495,53.46435546875,133.0,2.0
109980,53.701171875,132.0,2.0
114236,55.779296875,34.0,-1.0
115293,56.29541015625,38.0,-1.0
115850,56.5673828125,131.0,1.0
115967,56.62451171875,131.0,3.0
116003,56.64208984375,162.0,-1.0
116174,56.7255859375,132.0,1.0
116214,56.7451171875,133.0,3.0
116652,56.958984375,132.0,3.0
120926,59.0458984375,34.0,-1.0
121983,59.56201171875,35.0,-1.0
122564,59.845703125,131.0,1.0
122663,59.89404296875,131.0,3.0
122725,59.92431640625,162.0,-1.0
122952,60.03515625,132.0,1.0
122979,60.04833984375,133.0,3.0
125054,61.0615234375,132.0,3.0
127650,62.3291015625,34.0,-1.0
128707,62.84521484375,42.0,-1.0
129310,63.1396484375,131.0,0.0
129379,63.17333984375,131.0,2.0
129441,63.20361328125,133.0,3.0
129441,63.20361328125,131.0,3.0
129511,63.23779296875,98.0,-1.0
129516,63.240234375,132.0,3.0
129695,63.32763671875,132.0,0.0
129776,63.3671875,133.0,2.0
130506,63.7236328125,132.0,2.0
134443,65.64599609375,34.0,-1.0
135500,66.162109375,50.0,-1.0
136139,66.47412109375,131.0,0.0
136255,66.53076171875,131.0,2.0
136267,66.53662109375,133.0,3.0
136267,66.53662109375,131.0,3.0
136407,66.60498046875,98.0,-1.0
136526,66.6630859375,132.0,0.0
136643,66.72021484375,133.0,2.0
136723,66.75927734375,132.0,3.0
137414,67.0966796875,132.0,2.0
141338,69.0126953125,34.0,-1.0
142395,69.52880859375,50.0,-1.0
143016,69.83203125,131.0,0.0
143082,69.8642578125,131.0,2.0
143245,69.94384765625,98.0,-1.0
143365,70.00244140625,132.0,0.0
143461,70.04931640625,133.0,2.0
143933,70.27978515625,132.0,2.0
148198,72.3623046875,34.0,-1.0
149255,72.87841796875,35.0,-1.0
149845,73.16650390625,131.0,1.0
149904,73.1953125,131.0,3.0
149957,73.22119140625,162.0,-1.0
150445,73.45947265625,133.0,3.0
150457,73.46533203125,132.0,1.0
152229,74.33056640625,132.0,3.0
154888,75.62890625,34.0,-1.0
155945,76.14501953125,38.0,-1.0
156445,76.38916015625,131.0,3.0
156582,76.4560546875,131.0,1.0
156670,76.4990234375,162.0,-1.0
157064,76.69140625,133.0,3.0
157089,76.70361328125,132.0,1.0
158588,77.435546875,132.0,3.0
161612,78.912109375,34.0,-1.0
162670,79.4287109375,42.0,-1.0
162966,79.5732421875,133.0,3.0
162966,79.5732421875,131.0,3.0
163057,79.61767578125,131.0,0.0
163080,79.62890625,132.0,3.0
163181,79.67822265625,132.0,0.0
163217,79.69580078125,131.0,0.0
163247,79.71044921875,131.0,2.0
163363,79.76708984375,98.0,-1.0
163526,79.8466796875,132.0,0.0
163614,79.8896484375,133.0,2.0
164857,80.49658203125,132.0,2.0
168303,82.17919921875,34.0,-1.0
169360,82.6953125,42.0,-1.0
169779,82.89990234375,131.0,0.0
169875,82.94677734375,132.0,0.0
170076,83.044921875,131.0,2.0
170133,83.07275390625,131.0,0.0
170295,83.15185546875,98.0,-1.0
170440,83.22265625,132.0,0.0
170512,83.2578125,133.0,2.0
171168,83.578125,132.0,2.0
175231,85.56201171875,34.0,-1.0
176289,86.07861328125,42.0,-1.0
176609,86.23486328125,131.0,0.0
176736,86.296875,132.0,0.0
176812,86.333984375,131.0,0.0
176829,86.34228515625,131.0,2.0
176980,86.416015625,98.0,-1.0
177125,86.48681640625,132.0,0.0
177230,86.5380859375,133.0,2.0
178487,87.15185546875,132.0,2.0
181921,88.82861328125,34.0,-1.0
182979,89.34521484375,42.0,-1.0
183658,89.6767578125,131.0,2.0
183697,89.69580078125,131.0,0.0
183770,89.7314453125,131.0,3.0
183813,89.75244140625,98.0,-1.0
184084,89.884765625,132.0,0.0
184093,89.88916015625,133.0,2.0
184102,89.8935546875,133.0,3.0
184138,89.9111328125,132.0,3.0
185792,90.71875,132.0,2.0
188748,92.162109375,34.0,-1.0
189805,92.67822265625,42.0,-1.0
190345,92.94189453125,131.0,0.0
190362,92.9501953125,131.0,2.0
190431,92.98388671875,131.0,3.0
190491,93.01318359375,98.0,-1.0
190762,93.1455078125,132.0,0.0
190773,93.15087890625,133.0,2.0
190851,93.18896484375,133.0,3.0
190852,93.189453125,132.0,3.0
191315,93.41552734375,192.0,-1.0
192188,93.841796875,132.0,2.0
195438,95.4287109375,34.0,-1.0
196495,95.94482421875,38.0,-1.0
197122,96.2509765625,131.0,1.0
197187,96.28271484375,131.0,3.0
197210,96.2939453125,162.0,-1.0
197661,96.51416015625,133.0,3.0
197730,96.5478515625,132.0,1.0
198034,96.6962890625,192.0,-1.0
199088,97.2109375,132.0,3.0
202162,98.7119140625,34.0,-1.0
203219,99.22802734375,35.0,-1.0
203757,99.49072265625,131.0,1.0
203841,99.53173828125,131.0,3.0
203878,99.5498046875,162.0,-1.0
204179,99.69677734375,132.0,1.0
204197,99.70556640625,133.0,3.0
204702,99.9521484375,192.0,-1.0
205047,100.12060546875,132.0,3.0
208818,101.9619140625,34.0,-1.0
209875,102.47802734375,42.0,-1.0
210560,102.8125,131.0,0.0
210647,102.85498046875,133.0,3.0
210647,102.85498046875,131.0,3.0
210662,102.8623046875,131.0,2.0
210761,102.91064453125,98.0,-1.0
210866,102.9619140625,132.0,3.0
211015,103.03466796875,132.0,0.0
211019,103.03662109375,133.0,2.0
211741,103.38916015625,132.0,2.0
215713,105.32861328125,34.0,-1.0
216770,105.8447265625,50.0,-1.0
217522,106.2119140625,131.0,2.0
217525,106.21337890625,131.0,0.0
217651,106.27490234375,98.0,-1.0
217811,106.35302734375,132.0,0.0
217882,106.3876953125,133.0,2.0
218445,106.66259765625,132.0,2.0
222574,108.6787109375,34.0,-1.0
223631,109.19482421875,38.0,-1.0
224154,109.4501953125,131.0,1.0
224207,109.47607421875,131.0,3.0
224250,109.4970703125,162.0,-1.0
224552,109.64453125,133.0,3.0
224552,109.64453125,132.0,1.0
225074,109.8994140625,192.0,-1.0
225219,109.97021484375,132.0,3.0
229195,111.91162109375,34.0,-1.0
230252,112.427734375,35.0,-1.0
231015,112.80029296875,131.0,1.0
231057,112.82080078125,131.0,3.0
231127,112.85498046875,162.0,-1.0
231498,113.0361328125,133.0,3.0
231661,113.11572265625,132.0,1.0
232459,113.50537109375,132.0,3.0
236056,115.26171875,34.0,-1.0
237113,115.77783203125,35.0,-1.0
237703,116.06591796875,131.0,1.0
237771,116.09912109375,131.0,3.0
237802,116.1142578125,162.0,-1.0
238114,116.2666015625,132.0,1.0
238133,116.27587890625,133.0,3.0
238572,116.490234375,132.0,3.0
238626,116.5166015625,192.0,-1.0
242746,118.5283203125,34.0,-1.0
243803,119.04443359375,38.0,-1.0
244341,119.30712890625,131.0,1.0
244415,119.34326171875,131.0,3.0
244459,119.36474609375,162.0,-1.0
244791,119.52685546875,133.0,3.0
244993,119.62548828125,132.0,1.0
245283,119.76708984375,192.0,-1.0
245695,119.96826171875,132.0,3.0
249402,121.7783203125,34.0,-1.0
250459,122.29443359375,35.0,-1.0
251125,122.61962890625,131.0,1.0
251145,122.62939453125,131.0,3.0
251224,122.66796875,162.0,-1.0
251509,122.80712890625,132.0,1.0
251540,122.822265625,133.0,3.0
251989,123.04150390625,132.0,3.0
252048,123.0703125,192.0,-1.0
256160,125.078125,34.0,-1.0
257217,125.59423828125,35.0,-1.0
257925,125.93994140625,131.0,1.0
257934,125.9443359375,131.0,3.0
258040,125.99609375,162.0,-1.0
258279,126.11279296875,132.0,1.0
258315,126.13037109375,133.0,3.0
258865,126.39892578125,192.0,-1.0
259226,126.5751953125,132.0,3.0
262987,128.41162109375,34.0,-1.0
264044,128.927734375,35.0,-1.0
264354,129.0791015625,131.0,3.0
264684,129.240234375,131.0,1.0
264844,129.318359375,162.0,-1.0
264996,129.392578125,132.0,1.0
265089,129.43798828125,133.0,3.0
265505,129.64111328125,132.0,3.0
265668,129.720703125,192.0,-1.0
269779,131.72802734375,34.0,-1.0
270836,132.244140625,35.0,-1.0
271441,132.53955078125,131.0,1.0
271499,132.56787109375,131.0,3.0
271576,132.60546875,162.0,-1.0
271742,132.6865234375,132.0,1.0
271801,132.71533203125,133.0,3.0
272401,133.00830078125,192.0,-1.0
273153,133.37548828125,132.0,3.0
276503,135.01123046875,34.0,-1.0
277560,135.52734375,42.0,-1.0
278017,135.75048828125,131.0,0.0
278090,135.7861328125,131.0,2.0
278214,135.8466796875,98.0,-1.0
278387,135.93115234375,132.0,0.0
278400,135.9375,133.0,2.0
279039,136.24951171875,192.0,-1.0
279481,136.46533203125,132.0,2.0
283159,138.26123046875,34.0,-1.0
284216,138.77734375,38.0,-1.0
284793,139.05908203125,131.0,1.0
284828,139.076171875,131.0,3.0
284909,139.11572265625,162.0,-1.0
285003,139.16162109375,132.0,1.0
285097,139.20751953125,133.0,3.0
285536,139.421875,132.0,3.0
285733,139.51806640625,192.0,-1.0
289849,141.52783203125,34.0,-1.0
290906,142.0439453125,38.0,-1.0
291324,142.248046875,131.0,0.0
291436,142.302734375,132.0,0.0
291606,142.3857421875,131.0,1.0
291650,142.4072265625,131.0,3.0
291712,142.4375,162.0,-1.0
291860,142.509765625,132.0,1.0
291886,142.5224609375,133.0,3.0
292536,142.83984375,192.0,-1.0
293977,143.54345703125,132.0,3.0
296642,144.8447265625,34.0,-1.0
297699,145.36083984375,42.0,-1.0
298249,145.62939453125,131.0,0.0
298299,145.65380859375,131.0,2.0
298426,145.7158203125,98.0,-1.0
298525,145.76416015625,132.0,0.0
298596,145.798828125,133.0,2.0
299250,146.1181640625,192.0,-1.0
299846,146.4091796875,132.0,2.0
303366,148.1279296875,34.0,-1.0
304423,148.64404296875,50.0,-1.0
305057,148.95361328125,131.0,0.0
305114,148.9814453125,131.0,2.0
305252,149.048828125,98.0,-1.0
305348,149.095703125,132.0,0.0
305452,149.146484375,133.0,2.0
305981,149.40478515625,132.0,2.0
306077,149.45166015625,192.0,-1.0
310192,151.4609375,34.0,-1.0
311250,151.9775390625,35.0,-1.0
311918,152.3037109375,131.0,1.0
311974,152.3310546875,131.0,3.0
312042,152.3642578125,162.0,-1.0
312185,152.43408203125,132.0,1.0
312227,152.45458984375,133.0,3.0
312635,152.65380859375,132.0,3.0
312866,152.7666015625,192.0,-1.0
316985,154.77783203125,34.0,-1.0
318042,155.2939453125,42.0,-1.0
318525,155.52978515625,131.0,0.0
318558,155.5458984375,132.0,0.0
318636,155.583984375,131.0,0.0
318712,155.62109375,131.0,2.0
318828,155.677734375,98.0,-1.0
319007,155.76513671875,133.0,2.0
319046,155.7841796875,132.0,0.0
319652,156.080078125,192.0,-1.0
319937,156.21923828125,132.0,2.0
323777,158.09423828125,34.0,-1.0
324834,158.6103515625,38.0,-1.0
325559,158.96435546875,131.0,1.0
325627,158.99755859375,131.0,3.0
325682,159.0244140625,162.0,-1.0
325839,159.10107421875,132.0,1.0
325904,159.1328125,133.0,3.0
326429,159.38916015625,132.0,3.0
330604,161.427734375,34.0,-1.0
331661,161.94384765625,38.0,-1.0
332166,162.1904296875,131.0,1.0
332218,162.2158203125,131.0,3.0
332282,162.2470703125,162.0,-1.0
332366,162.2880859375,132.0,1.0
332448,162.328125,133.0,3.0
333054,162.6240234375,132.0,3.0
333107,162.64990234375,192.0,-1.0
337226,164.6611328125,34.0,-1.0
338283,165.17724609375,38.0,-1.0
338696,165.37890625,131.0,1.0
338742,165.4013671875,131.0,3.0
338813,165.43603515625,162.0,-1.0
338926,165.4912109375,132.0,1.0
339006,165.5302734375,133.0,3.0
339580,165.810546875,132.0,3.0
339637,165.83837890625,192.0,-1.0
343745,167.84423828125,34.0,-1.0
344802,168.3603515625,50.0,-1.0
345097,168.50439453125,131.0,1.0
345149,168.52978515625,131.0,3.0
345277,168.59228515625,132.0,1.0
345281,168.59423828125,162.0,-1.0
345361,168.63330078125,133.0,3.0
347297,169.57861328125,132.0,3.0
350230,171.0107421875,34.0,-1.0
351287,171.52685546875,42.0,-1.0
351738,171.7470703125,131.0,0.0
351822,171.7880859375,131.0,2.0
351922,171.8369140625,131.0,3.0
351972,171.861328125,98.0,-1.0
352051,171.89990234375,132.0,0.0
352098,171.9228515625,133.0,3.0
352135,171.94091796875,132.0,3.0
352153,171.94970703125,133.0,2.0
352528,172.1328125,132.0,2.0
352796,172.263671875,192.0,-1.0
356920,174.27734375,34.0,-1.0
357977,174.79345703125,35.0,-1.0
358341,174.97119140625,131.0,0.0
358483,175.04052734375,132.0,0.0
358603,175.09912109375,131.0,1.0
358660,175.126953125,131.0,3.0
358685,175.13916015625,162.0,-1.0
358805,175.19775390625,132.0,1.0
358853,175.22119140625,133.0,3.0
359417,175.49658203125,132.0,3.0
359509,175.54150390625,192.0,-1.0
363644,177.560546875,34.0,-1.0
364701,178.07666015625,50.0,-1.0
364959,178.20263671875,131.0,0.0
365009,178.22705078125,132.0,0.0
365314,178.3759765625,131.0,0.0
365459,178.44677734375,131.0,3.0
365459,178.44677734375,133.0,3.0
365462,178.4482421875,131.0,2.0
365558,178.4951171875,98.0,-1.0
365619,178.52490234375,132.0,0.0
365687,178.55810546875,132.0,3.0
365700,178.564453125,133.0,2.0
366192,178.8046875,132.0,2.0
370505,180.91064453125,34.0,-1.0
371562,181.4267578125,42.0,-1.0
371867,181.57568359375,131.0,0.0
372022,181.6513671875,132.0,0.0
372172,181.724609375,131.0,0.0
372228,181.751953125,131.0,2.0
372311,181.79248046875,131.0,3.0
372359,181.81591796875,98.0,-1.0
372463,181.86669921875,132.0,0.0
372518,181.8935546875,133.0,2.0
372596,181.931640625,133.0,3.0
372597,181.93212890625,132.0,3.0
372952,182.10546875,132.0,2.0
377297,184.22705078125,34.0,-1.0
378355,184.74365234375,35.0,-1.0
379263,185.18701171875,131.0,1.0
379338,185.2236328125,131.0,3.0
379388,185.248046875,162.0,-1.0
379482,185.2939453125,132.0,1.0
379568,185.3359375,133.0,3.0
379967,185.53076171875,132.0,3.0
384329,187.66064453125,34.0,-1.0
385386,188.1767578125,50.0,-1.0
385997,188.47509765625,131.0,0.0
386117,188.53369140625,132.0,0.0
386146,188.5478515625,131.0,0.0
386173,188.56103515625,131.0,2.0
386208,188.578125,131.0,3.0
386302,188.6240234375,98.0,-1.0
386344,188.64453125,133.0,3.0
386379,188.66162109375,132.0,0.0
386393,188.66845703125,132.0,3.0
386452,188.697265625,133.0,2.0
386934,188.9326171875,132.0,2.0
391258,191.0439453125,34.0,-1.0
392315,191.56005859375,38.0,-1.0
392812,191.802734375,131.0,1.0
392878,191.8349609375,131.0,3.0
392929,191.85986328125,162.0,-1.0
393049,191.91845703125,132.0,1.0
393114,191.9501953125,133.0,3.0
393754,192.2626953125,192.0,-1.0
393906,192.3369140625,132.0,3.0
397880,194.27734375,34.0,-1.0
398937,194.79345703125,50.0,-1.0
399404,195.021484375,131.0,0.0
399555,195.09521484375,131.0,2.0
399587,195.11083984375,131.0,3.0
399587,195.11083984375,133.0,3.0
399719,195.17529296875,98.0,-1.0
399780,195.205078125,132.0,0.0
399873,195.25048828125,133.0,2.0
399896,195.26171875,132.0,3.0
400573,195.59228515625,132.0,2.0
404672,197.59375,34.0,-1.0
405729,198.10986328125,50.0,-1.0
406325,198.40087890625,131.0,0.0
406362,198.4189453125,132.0,0.0
406398,198.4365234375,131.0,0.0
406457,198.46533203125,131.0,2.0
406505,198.48876953125,131.0,3.0
406590,198.5302734375,98.0,-1.0
406628,198.548828125,132.0,0.0
406732,198.599609375,133.0,2.0
406783,198.62451171875,133.0,3.0
406784,198.625,132.0,3.0
407127,198.79248046875,132.0,2.0
411533,200.94384765625,34.0,-1.0
412590,201.4599609375,42.0,-1.0
413079,201.69873046875,131.0,0.0
413145,201.73095703125,131.0,2.0
413214,201.7646484375,133.0,3.0
413214,201.7646484375,131.0,3.0
413291,201.80224609375,98.0,-1.0
413333,201.82275390625,132.0,0.0
413417,201.86376953125,133.0,2.0
413506,201.9072265625,132.0,3.0
413825,202.06298828125,132.0,2.0
414115,202.20458984375,192.0,-1.0
418223,204.21044921875,34.0,-1.0
419280,204.7265625,38.0,-1.0
419735,204.94873046875,131.0,1.0
419805,204.98291015625,131.0,3.0
419861,205.01025390625,162.0,-1.0
419974,205.0654296875,132.0,1.0
420032,205.09375,133.0,3.0
420503,205.32373046875,132.0,3.0
420685,205.41259765625,192.0,-1.0
424810,207.4267578125,34.0,-1.0
425867,207.94287109375,42.0,-1.0
426295,208.15185546875,131.0,0.0
426427,208.21630859375,131.0,2.0
426472,208.23828125,131.0,3.0
426472,208.23828125,133.0,3.0
426577,208.28955078125,98.0,-1.0
426618,208.3095703125,132.0,0.0
426705,208.35205078125,133.0,2.0
426724,208.361328125,132.0,3.0
427113,208.55126953125,132.0,2.0
427401,208.69189453125,192.0,-1.0
431534,210.7099609375,34.0,-1.0
432592,211.2265625,35.0,-1.0
433139,211.49365234375,131.0,1.0
433175,211.51123046875,131.0,3.0
433241,211.54345703125,162.0,-1.0
433343,211.59326171875,132.0,1.0
433407,211.62451171875,133.0,3.0
433906,211.8681640625,132.0,3.0
434065,211.94580078125,192.0,-1.0
438190,213.9599609375,34.0,-1.0
439247,214.47607421875,50.0,-1.0
439811,214.75146484375,131.0,0.0
439914,214.8017578125,131.0,2.0
439969,214.82861328125,131.0,3.0
439969,214.82861328125,133.0,3.0
440087,214.88623046875,132.0,0.0
440101,214.89306640625,98.0,-1.0
440140,214.912109375,132.0,3.0
440188,214.935546875,133.0,2.0
440621,215.14697265625,132.0,2.0
445051,217.31005859375,34.0,-1.0
446108,217.826171875,50.0,-1.0
446747,218.13818359375,131.0,0.0
446883,218.20458984375,131.0,2.0
446908,218.216796875,133.0,3.0
446908,218.216796875,131.0,3.0
447046,218.2841796875,98.0,-1.0
447086,218.3037109375,132.0,0.0
447183,218.35107421875,133.0,2.0
447282,218.3994140625,132.0,3.0
447617,218.56298828125,132.0,2.0
451980,220.693359375,34.0,-1.0
453037,221.20947265625,50.0,-1.0
453675,221.52099609375,131.0,0.0
453770,221.5673828125,131.0,2.0
453859,221.61083984375,98.0,-1.0
453956,221.658203125,132.0,0.0
454008,221.68359375,133.0,2.0
454605,221.97509765625,132.0,2.0
458806,224.0263671875,34.0,-1.0
459864,224.54296875,35.0,-1.0
460595,224.89990234375,131.0,1.0
460654,224.9287109375,131.0,3.0
460707,224.95458984375,162.0,-1.0
460804,225.001953125,132.0,1.0
460869,225.03369140625,133.0,3.0
462062,225.6162109375,132.0,3.0
465633,227.35986328125,34.0,-1.0
466690,227.8759765625,38.0,-1.0
467261,228.15478515625,131.0,1.0
467299,228.17333984375,131.0,3.0
467342,228.1943359375,162.0,-1.0
467426,228.2353515625,132.0,1.0
467512,228.27734375,133.0,3.0
467911,228.47216796875,132.0,3.0
468166,228.5966796875,192.0,-1.0
472289,230.60986328125,34.0,-1.0
473346,231.1259765625,50.0,-1.0
473919,231.40576171875,131.0,0.0
474017,231.45361328125,131.0,2.0
474067,231.47802734375,131.0,3.0
474067,231.47802734375,133.0,3.0
474142,231.5146484375,98.0,-1.0
474181,231.53369140625,132.0,0.0
474279,231.58154296875,133.0,2.0
474321,231.60205078125,132.0,3.0
474694,231.7841796875,132.0,2.0
483160,235.91796875,127.0,-1.0
595272,290.66015625,63.0,-1.0
599400,292.67578125,34.0,-1.0
600457,293.19189453125,38.0,-1.0
601280,293.59375,131.0,1.0
601329,293.61767578125,131.0,3.0
601405,293.65478515625,162.0,-1.0
601684,293.791015625,133.0,3.0
601733,293.81494140625,132.0,1.0
602503,294.19091796875,132.0,3.0
606329,296.05908203125,34.0,-1.0
607385,296.57470703125,50.0,-1.0
607813,296.78369140625,131.0,0.0
607933,296.84228515625,132.0,0.0
608033,296.89111328125,131.0,2.0
608041,296.89501953125,131.0,0.0
608069,296.90869140625,131.0,3.0
608152,296.94921875,98.0,-1.0
608250,296.9970703125,132.0,0.0
608383,297.06201171875,133.0,2.0
608632,297.18359375,133.0,3.0
608657,297.19580078125,132.0,3.0
609921,297.81298828125,132.0,2.0
613087,299.35888671875,34.0,-1.0
614144,299.875,38.0,-1.0
614752,300.171875,131.0,1.0
614806,300.1982421875,131.0,3.0
614845,300.21728515625,162.0,-1.0
614994,300.2900390625,132.0,1.0
615033,300.30908203125,133.0,3.0
616090,300.8251953125,132.0,3.0
619777,302.62548828125,34.0,-1.0
620834,303.1416015625,35.0,-1.0
621357,303.39697265625,131.0,2.0
621515,303.47412109375,131.0,1.0
621567,303.49951171875,131.0,0.0
621574,303.5029296875,133.0,2.0
621583,303.50732421875,131.0,3.0
621613,303.52197265625,162.0,-1.0
621691,303.56005859375,132.0,0.0
621797,303.61181640625,132.0,1.0
621862,303.6435546875,133.0,3.0
622371,303.89208984375,132.0,3.0
623589,304.48681640625,132.0,2.0
626570,305.9423828125,34.0,-1.0
627626,306.4580078125,38.0,-1.0
628123,306.70068359375,131.0,1.0
628226,306.7509765625,131.0,3.0
628271,306.77294921875,162.0,-1.0
628477,306.87353515625,133.0,3.0
628593,306.93017578125,132.0,1.0
628800,307.03125,132.0,3.0
633226,309.1923828125,34.0,-1.0
634282,309.7080078125,50.0,-1.0
634587,309.85693359375,131.0,1.0
634715,309.91943359375,131.0,3.0
634748,309.935546875,162.0,-1.0
634900,310.009765625,133.0,3.0
634960,310.0390625,132.0,1.0
635298,310.2041015625,132.0,3.0
639677,312.34228515625,34.0,-1.0
640733,312.85791015625,50.0,-1.0
641493,313.22900390625,131.0,0.0
641495,313.22998046875,131.0,2.0
641574,313.2685546875,98.0,-1.0
641666,313.3134765625,132.0,0.0
641738,313.3486328125,133.0,2.0
643491,314.20458984375,132.0,2.0
646503,315.67529296875,34.0,-1.0
647560,316.19140625,35.0,-1.0
648239,316.52294921875,131.0,1.0
648249,316.52783203125,131.0,0.0
648337,316.57080078125,132.0,0.0
648353,316.57861328125,131.0,2.0
648366,316.5849609375,131.0,3.0
648399,316.60107421875,162.0,-1.0
648468,316.634765625,133.0,2.0
648528,316.6640625,132.0,1.0
648558,316.6787109375,132.0,2.0
648643,316.72021484375,133.0,3.0
649930,317.3486328125,132.0,3.0
653330,319.0087890625,34.0,-1.0
654386,319.5244140625,50.0,-1.0
655065,319.85595703125,131.0,3.0
655065,319.85595703125,133.0,3.0
655114,319.8798828125,131.0,2.0
655116,319.880859375,131.0,0.0
655258,319.9501953125,98.0,-1.0
655279,319.96044921875,132.0,0.0
655434,320.0361328125,133.0,2.0
655831,320.22998046875,132.0,2.0
657457,321.02392578125,132.0,3.0
660191,322.35888671875,34.0,-1.0
661247,322.87451171875,35.0,-1.0
661882,323.1845703125,131.0,1.0
661966,323.2255859375,131.0,3.0
661997,323.24072265625,162.0,-1.0
662181,323.33056640625,133.0,3.0
662195,323.33740234375,132.0,1.0
663684,324.064453125,132.0,3.0
666950,325.6591796875,34.0,-1.0
668005,326.17431640625,38.0,-1.0
668797,326.56103515625,131.0,1.0
668852,326.587890625,131.0,3.0
668907,326.61474609375,162.0,-1.0
669079,326.69873046875,132.0,1.0
669107,326.71240234375,133.0,3.0
671071,327.67138671875,132.0,3.0
673844,329.025390625,34.0,-1.0
674900,329.541015625,42.0,-1.0
675447,329.80810546875,131.0,0.0
675496,329.83203125,131.0,2.0
675631,329.89794921875,98.0,-1.0
675665,329.91455078125,132.0,0.0
675785,329.97314453125,133.0,2.0
676254,330.2021484375,132.0,2.0
680568,332.30859375,34.0,-1.0
681624,332.82421875,38.0,-1.0
682137,333.07470703125,131.0,1.0
682257,333.13330078125,131.0,3.0
682314,333.1611328125,162.0,-1.0
682447,333.22607421875,132.0,1.0
682512,333.2578125,133.0,3.0
683325,333.65478515625,132.0,3.0
687258,335.5751953125,34.0,-1.0
688314,336.0908203125,35.0,-1.0
688924,336.388671875,131.0,2.0
688944,336.3984375,131.0,1.0
688978,336.4150390625,131.0,0.0
689002,336.4267578125,131.0,3.0
689046,336.4482421875,133.0,2.0
689046,336.4482421875,162.0,-1.0
689052,336.451171875,132.0,0.0
689224,336.53515625,133.0,3.0
689272,336.55859375,132.0,1.0
689365,336.60400390625,132.0,2.0
691161,337.48095703125,132.0,3.0
693982,338.8583984375,34.0,-1.0
695038,339.3740234375,50.0,-1.0
695638,339.6669921875,131.0,0.0
695718,339.7060546875,131.0,2.0
695738,339.7158203125,131.0,3.0
695848,339.76953125,98.0,-1.0
695903,339.79638671875,132.0,0.0
695922,339.8056640625,133.0,3.0
695923,339.80615234375,132.0,3.0
696019,339.85302734375,133.0,2.0
696460,340.068359375,132.0,2.0
700775,342.17529296875,34.0,-1.0
701831,342.69091796875,35.0,-1.0
702470,343.0029296875,131.0,0.0
702540,343.037109375,131.0,1.0
702591,343.06201171875,132.0,0.0
702603,343.06787109375,131.0,3.0
702680,343.10546875,162.0,-1.0
702834,343.1806640625,132.0,1.0
702860,343.193359375,133.0,3.0
703573,343.54150390625,132.0,3.0
707636,345.525390625,34.0,-1.0
708692,346.041015625,42.0,-1.0
709280,346.328125,131.0,0.0
709348,346.361328125,131.0,2.0
709473,346.42236328125,98.0,-1.0
709537,346.45361328125,132.0,0.0
709657,346.51220703125,133.0,2.0
710179,346.76708984375,132.0,2.0
714428,348.841796875,34.0,-1.0
715484,349.357421875,38.0,-1.0
715823,349.52294921875,131.0,1.0
715903,349.56201171875,131.0,3.0
715970,349.5947265625,162.0,-1.0
716165,349.68994140625,132.0,1.0
716179,349.69677734375,133.0,3.0
718207,350.68701171875,132.0,3.0
720913,352.00830078125,34.0,-1.0
721969,352.52392578125,38.0,-1.0
722716,352.888671875,131.0,1.0
722757,352.90869140625,131.0,3.0
722854,352.9560546875,162.0,-1.0
722979,353.01708984375,132.0,1.0
723029,353.04150390625,133.0,3.0
723803,353.41943359375,132.0,3.0
727808,355.375,34.0,-1.0
728864,355.890625,38.0,-1.0
729467,356.18505859375,131.0,1.0
729530,356.2158203125,131.0,3.0
729610,356.2548828125,162.0,-1.0
729750,356.3232421875,132.0,1.0
729791,356.34326171875,133.0,3.0
730611,356.74365234375,132.0,3.0
734566,358.6748046875,34.0,-1.0
735622,359.1904296875,35.0,-1.0
736202,359.4736328125,131.0,1.0
736317,359.52978515625,131.0,3.0
736371,359.55615234375,162.0,-1.0
736536,359.63671875,133.0,3.0
736600,359.66796875,132.0,1.0
737361,360.03955078125,132.0,3.0
741325,361.97509765625,34.0,-1.0
742381,362.49072265625,35.0,-1.0
743020,362.802734375,131.0,1.0
743087,362.83544921875,131.0,3.0
743154,362.8681640625,162.0,-1.0
743413,362.99462890625,132.0,1.0
743413,362.99462890625,133.0,3.0
743979,363.27099609375,192.0,-1.0
743984,363.2734375,132.0,3.0
748117,365.29150390625,34.0,-1.0
749173,365.80712890625,42.0,-1.0
749799,366.11279296875,131.0,2.0
749806,366.1162109375,131.0,0.0
749911,366.16748046875,131.0,3.0
749911,366.16748046875,133.0,3.0
749956,366.189453125,132.0,0.0
750018,366.2197265625,98.0,-1.0
750115,366.26708984375,133.0,2.0
750162,366.2900390625,132.0,3.0
750549,366.47900390625,132.0,2.0
754978,368.6416015625,34.0,-1.0
756034,369.1572265625,50.0,-1.0
756766,369.5146484375,131.0,0.0
756767,369.51513671875,131.0,2.0
756821,369.54150390625,131.0,3.0
756821,369.54150390625,133.0,3.0
756929,369.59423828125,132.0,0.0
756953,369.60595703125,98.0,-1.0
757007,369.63232421875,132.0,3.0
757033,369.64501953125,133.0,2.0
757504,369.875,132.0,2.0
761907,372.02490234375,34.0,-1.0
762963,372.54052734375,35.0,-1.0
763556,372.830078125,131.0,1.0
763661,372.88134765625,131.0,3.0
763697,372.89892578125,162.0,-1.0
763830,372.9638671875,132.0,1.0
763870,372.9833984375,133.0,3.0
764522,373.3017578125,192.0,-1.0
764685,373.38134765625,132.0,3.0
768630,375.3076171875,34.0,-1.0
769687,375.82373046875,35.0,-1.0
770238,376.0927734375,131.0,1.0
770315,376.13037109375,131.0,3.0
770374,376.1591796875,162.0,-1.0
770501,376.22119140625,132.0,1.0
770530,376.2353515625,133.0,3.0
771197,376.56103515625,132.0,3.0
771199,376.56201171875,192.0,-1.0
775321,378.57470703125,34.0,-1.0
776377,379.09033203125,50.0,-1.0
777178,379.4814453125,131.0,0.0
777184,379.484375,131.0,2.0
777244,379.513671875,133.0,3.0
777244,379.513671875,131.0,3.0
777286,379.5341796875,132.0,3.0
777303,379.54248046875,98.0,-1.0
777319,379.55029296875,132.0,0.0
777482,379.6298828125,133.0,2.0
777971,379.86865234375,132.0,2.0
782250,381.9580078125,34.0,-1.0
783306,382.4736328125,38.0,-1.0
783909,382.76806640625,131.0,1.0
783981,382.80322265625,131.0,3.0
784041,382.83251953125,162.0,-1.0
784225,382.92236328125,133.0,3.0
784226,382.9228515625,132.0,1.0
784866,383.2353515625,192.0,-1.0
785980,383.779296875,132.0,3.0
788974,385.2412109375,34.0,-1.0
790030,385.7568359375,50.0,-1.0
790677,386.07275390625,131.0,0.0
790682,386.0751953125,131.0,2.0
790710,386.0888671875,131.0,3.0
790810,386.1376953125,98.0,-1.0
791004,386.232421875,132.0,0.0
791050,386.2548828125,133.0,2.0
791110,386.2841796875,133.0,3.0
791111,386.28466796875,132.0,3.0
791571,386.50927734375,132.0,2.0
795767,388.55810546875,34.0,-1.0
796822,389.0732421875,38.0,-1.0
797287,389.30029296875,131.0,1.0
797345,389.32861328125,131.0,3.0
797395,389.35302734375,162.0,-1.0
797608,389.45703125,133.0,3.0
797629,389.46728515625,132.0,1.0
798175,389.73388671875,132.0,3.0
798221,389.75634765625,192.0,-1.0
802354,391.7744140625,34.0,-1.0
803410,392.2900390625,38.0,-1.0
803923,392.54052734375,131.0,1.0
803988,392.572265625,131.0,3.0
804029,392.59228515625,162.0,-1.0
804276,392.712890625,133.0,3.0
804413,392.77978515625,132.0,1.0
804854,392.9951171875,192.0,-1.0
805445,393.28369140625,132.0,3.0
808976,395.0078125,34.0,-1.0
810032,395.5234375,35.0,-1.0
810574,395.7880859375,131.0,2.0
810703,395.85107421875,131.0,1.0
810742,395.8701171875,131.0,3.0
810786,395.8916015625,133.0,2.0
810789,395.89306640625,162.0,-1.0
811041,396.01611328125,133.0,3.0
811176,396.08203125,132.0,1.0
811490,396.2353515625,132.0,2.0
811614,396.2958984375,192.0,-1.0
812319,396.64013671875,132.0,3.0
815734,398.3076171875,34.0,-1.0
816790,398.8232421875,35.0,-1.0
817368,399.10546875,131.0,1.0
817460,399.150390625,131.0,3.0
817507,399.17333984375,162.0,-1.0
817807,399.31982421875,132.0,1.0
817837,399.33447265625,133.0,3.0
818332,399.576171875,192.0,-1.0
818616,399.71484375,132.0,3.0
822458,401.5908203125,34.0,-1.0
823514,402.1064453125,38.0,-1.0
823985,402.33642578125,131.0,1.0
824065,402.37548828125,131.0,3.0
824097,402.39111328125,162.0,-1.0
824429,402.55322265625,132.0,1.0
824445,402.56103515625,133.0,3.0
824922,402.7939453125,192.0,-1.0
825947,403.29443359375,132.0,3.0
829046,404.8076171875,34.0,-1.0
830102,405.3232421875,42.0,-1.0
830735,405.63232421875,131.0,2.0
830758,405.6435546875,131.0,0.0
830858,405.6923828125,98.0,-1.0
831124,405.822265625,132.0,0.0
831141,405.83056640625,133.0,2.0
831683,406.09521484375,192.0,-1.0
833096,406.78515625,132.0,2.0
835804,408.107421875,34.0,-1.0
836860,408.623046875,50.0,-1.0
837563,408.96630859375,131.0,0.0
837581,408.97509765625,131.0,2.0
837680,409.0234375,98.0,-1.0
838014,409.1865234375,132.0,0.0
838031,409.19482421875,133.0,2.0
839413,409.86962890625,132.0,2.0
842631,411.44091796875,34.0,-1.0
843687,411.95654296875,50.0,-1.0
844262,412.2373046875,131.0,0.0
844277,412.24462890625,131.0,2.0
844357,412.28369140625,131.0,3.0
844426,412.3173828125,98.0,-1.0
844478,412.3427734375,133.0,3.0
844479,412.34326171875,132.0,3.0
844745,412.47314453125,132.0,0.0
844804,412.501953125,133.0,2.0
845251,412.72021484375,192.0,-1.0
846296,413.23046875,132.0,2.0
849389,414.74072265625,34.0,-1.0
850445,415.25634765625,42.0,-1.0
851053,415.55322265625,131.0,0.0
851092,415.572265625,131.0,2.0
851199,415.62451171875,98.0,-1.0
851538,415.7900390625,133.0,2.0
851583,415.81201171875,132.0,0.0
852024,416.02734375,192.0,-1.0
852718,416.3662109375,132.0,2.0
856147,418.04052734375,34.0,-1.0
857203,418.55615234375,42.0,-1.0
857768,418.83203125,131.0,0.0
857792,418.84375,131.0,2.0
857869,418.88134765625,98.0,-1.0
858187,419.03662109375,133.0,2.0
858295,419.08935546875,132.0,0.0
858694,419.2841796875,192.0,-1.0
859198,419.5302734375,132.0,2.0
862803,421.29052734375,34.0,-1.0
863859,421.80615234375,50.0,-1.0
864682,422.2080078125,131.0,2.0
864704,422.21875,131.0,0.0
864794,422.2626953125,98.0,-1.0
865215,422.46826171875,133.0,2.0
865275,422.49755859375,132.0,0.0
866863,423.27294921875,132.0,2.0
869732,424.673828125,34.0,-1.0
870788,425.189453125,38.0,-1.0
871270,425.4248046875,131.0,1.0
871347,425.46240234375,131.0,0.0
871387,425.48193359375,131.0,3.0
871412,425.494140625,162.0,-1.0
871465,425.52001953125,132.0,0.0
871627,425.59912109375,133.0,3.0
871755,425.66162109375,132.0,1.0
872237,425.89697265625,192.0,-1.0
873037,426.28759765625,132.0,3.0
876353,427.90673828125,34.0,-1.0
877410,428.4228515625,38.0,-1.0
877804,428.615234375,131.0,1.0
877922,428.6728515625,131.0,3.0
877952,428.6875,162.0,-1.0
878165,428.79150390625,133.0,3.0
878251,428.83349609375,132.0,1.0
878777,429.09033203125,192.0,-1.0
879362,429.3759765625,132.0,3.0
882907,431.10693359375,34.0,-1.0
883963,431.62255859375,42.0,-1.0
884559,431.91357421875,131.0,0.0
884615,431.94091796875,131.0,2.0
884706,431.9853515625,98.0,-1.0
884852,432.056640625,132.0,0.0
884922,432.0908203125,133.0,2.0
885417,432.33251953125,132.0,2.0
885531,432.38818359375,192.0,-1.0
889666,434.4072265625,34.0,-1.0
890722,434.9228515625,50.0,-1.0
891477,435.29150390625,131.0,0.0
891516,435.310546875,131.0,2.0
891629,435.36572265625,98.0,-1.0
891788,435.443359375,132.0,0.0
891853,435.47509765625,133.0,2.0
892352,435.71875,132.0,2.0
896560,437.7734375,34.0,-1.0
897616,438.2890625,50.0,-1.0
898057,438.50439453125,131.0,1.0
898215,438.58154296875,131.0,3.0
898346,438.6455078125,132.0,1.0
898385,438.66455078125,133.0,3.0
898453,438.69775390625,131.0,0.0
898487,438.71435546875,131.0,2.0
898616,438.77734375,98.0,-1.0
898804,438.869140625,132.0,3.0
898903,438.91748046875,133.0,2.0
898940,438.935546875,132.0,0.0
900290,439.5947265625,132.0,2.0
903558,441.1904296875,34.0,-1.0
904614,441.7060546875,42.0,-1.0
905216,442.0,131.0,2.0
905245,442.01416015625,131.0,0.0
905335,442.05810546875,98.0,-1.0
905514,442.1455078125,132.0,0.0
905572,442.173828125,133.0,2.0
906160,442.4609375,192.0,-1.0
906551,442.65185546875,132.0,2.0
910282,444.4736328125,34.0,-1.0
911338,444.9892578125,42.0,-1.0
911866,445.2470703125,131.0,0.0
911934,445.2802734375,131.0,2.0
911975,445.30029296875,131.0,3.0
912051,445.33740234375,98.0,-1.0
912248,445.43359375,132.0,0.0
912282,445.4501953125,133.0,2.0
912396,445.505859375,133.0,3.0
912397,445.50634765625,132.0,3.0
912758,445.6826171875,132.0,2.0
912876,445.740234375,192.0,-1.0
917006,447.7568359375,34.0,-1.0
918062,448.2724609375,42.0,-1.0
918562,448.5166015625,131.0,2.0
918570,448.5205078125,131.0,0.0
918617,448.54345703125,131.0,3.0
918664,448.56640625,98.0,-1.0
918890,448.6767578125,132.0,0.0
918908,448.685546875,133.0,2.0
918998,448.7294921875,133.0,3.0
918999,448.72998046875,132.0,3.0
919489,448.96923828125,192.0,-1.0
921113,449.76220703125,132.0,2.0
923628,450.990234375,34.0,-1.0
924684,451.505859375,42.0,-1.0
925127,451.72216796875,131.0,0.0
925198,451.7568359375,131.0,2.0
925297,451.80517578125,98.0,-1.0
925568,451.9375,133.0,2.0
925602,451.9541015625,132.0,0.0
926122,452.2080078125,192.0,-1.0
926753,452.51611328125,132.0,2.0
930250,454.2236328125,34.0,-1.0
931305,454.73876953125,38.0,-1.0
931776,454.96875,131.0,1.0
931879,455.01904296875,131.0,3.0
931911,455.03466796875,162.0,-1.0
932198,455.1748046875,132.0,1.0
932200,455.17578125,133.0,3.0
932736,455.4375,192.0,-1.0
933997,456.05322265625,132.0,3.0
936871,457.45654296875,34.0,-1.0
937927,457.97216796875,50.0,-1.0
938599,458.30029296875,131.0,0.0
938622,458.3115234375,131.0,2.0
938707,458.35302734375,131.0,3.0
938734,458.3662109375,98.0,-1.0
938958,458.4755859375,132.0,0.0
938985,458.48876953125,133.0,2.0
939083,458.53662109375,133.0,3.0
939084,458.537109375,132.0,3.0
940327,459.14404296875,132.0,2.0
943663,460.77294921875,34.0,-1.0
944720,461.2890625,42.0,-1.0
945359,461.60107421875,131.0,0.0
945396,461.619140625,131.0,2.0
945434,461.6376953125,131.0,3.0
945515,461.67724609375,98.0,-1.0
945735,461.78466796875,132.0,0.0
945773,461.80322265625,133.0,2.0
945867,461.84912109375,133.0,3.0
945868,461.849609375,132.0,3.0
946452,462.134765625,132.0,2.0
950456,464.08984375,34.0,-1.0
951512,464.60546875,35.0,-1.0
952203,464.94287109375,131.0,1.0
952284,464.982421875,131.0,3.0
952327,465.00341796875,162.0,-1.0
952537,465.10595703125,132.0,1.0
952589,465.13134765625,133.0,3.0
953212,465.435546875,132.0,3.0
957283,467.42333984375,34.0,-1.0
958339,467.93896484375,35.0,-1.0
958967,468.24560546875,131.0,1.0
959048,468.28515625,131.0,3.0
959124,468.322265625,162.0,-1.0
959292,468.404296875,132.0,1.0
959366,468.4404296875,133.0,3.0
959898,468.7001953125,132.0,3.0
964075,470.73974609375,34.0,-1.0
965131,471.25537109375,50.0,-1.0
965733,471.54931640625,131.0,0.0
965758,471.5615234375,131.0,2.0
965786,471.5751953125,131.0,3.0
965863,471.61279296875,98.0,-1.0
966079,471.71826171875,132.0,0.0
966083,471.72021484375,133.0,2.0
966151,471.75341796875,133.0,3.0
966152,471.75390625,132.0,3.0
966688,472.015625,192.0,-1.0
966839,472.08935546875,132.0,2.0
970799,474.02294921875,34.0,-1.0
971855,474.53857421875,50.0,-1.0
972561,474.88330078125,131.0,0.0
972568,474.88671875,131.0,2.0
972628,474.916015625,131.0,3.0
972722,474.9619140625,98.0,-1.0
972904,475.05078125,132.0,0.0
972951,475.07373046875,133.0,2.0
973060,475.126953125,133.0,3.0
973061,475.12744140625,132.0,3.0
973517,475.35009765625,132.0,2.0
977659,477.37255859375,34.0,-1.0
978716,477.888671875,42.0,-1.0
979299,478.17333984375,131.0,0.0
979311,478.17919921875,131.0,2.0
979376,478.2109375,131.0,3.0
979421,478.23291015625,98.0,-1.0
979562,478.3017578125,132.0,0.0
979627,478.33349609375,133.0,2.0
979745,478.39111328125,133.0,3.0
979746,478.3916015625,132.0,3.0
980095,478.56201171875,132.0,2.0
980246,478.6357421875,192.0,-1.0
984384,480.65625,34.0,-1.0
985440,481.171875,35.0,-1.0
986084,481.486328125,131.0,1.0
986175,481.53076171875,131.0,3.0
986240,481.5625,162.0,-1.0
986425,481.65283203125,132.0,1.0
986467,481.67333984375,133.0,3.0
986943,481.90576171875,132.0,3.0
991175,483.97216796875,34.0,-1.0
992232,484.48828125,38.0,-1.0
992768,484.75,131.0,1.0
992847,484.78857421875,131.0,3.0
992938,484.8330078125,162.0,-1.0
993120,484.921875,132.0,1.0
993141,484.93212890625,133.0,3.0
993625,485.16845703125,132.0,3.0
993762,485.2353515625,192.0,-1.0
997900,487.255859375,34.0,-1.0
998957,487.77197265625,42.0,-1.0
999523,488.04833984375,131.0,0.0
999617,488.09423828125,131.0,2.0
999648,488.109375,131.0,3.0
999740,488.154296875,98.0,-1.0
999809,488.18798828125,132.0,0.0
999919,488.24169921875,133.0,2.0
1000024,488.29296875,133.0,3.0
1000025,488.29345703125,132.0,3.0
1000401,488.47705078125,132.0,2.0
1004692,490.572265625,34.0,-1.0
1005749,491.08837890625,35.0,-1.0
1006462,491.4365234375,131.0,2.0
1006563,491.48583984375,131.0,1.0
1006594,491.5009765625,133.0,2.0
1006635,491.52099609375,131.0,3.0
1006693,491.54931640625,162.0,-1.0
1006959,491.67919921875,132.0,1.0
1006982,491.6904296875,133.0,3.0
1007284,491.837890625,132.0,2.0
1007618,492.0009765625,132.0,3.0
1011621,493.95556640625,34.0,-1.0
1012678,494.4716796875,42.0,-1.0
1013433,494.84033203125,131.0,0.0
1013464,494.85546875,131.0,2.0
1013577,494.91064453125,98.0,-1.0
1013651,494.94677734375,132.0,0.0
1013767,495.00341796875,133.0,2.0
1014256,495.2421875,132.0,2.0
1018516,497.322265625,34.0,-1.0
1019573,497.83837890625,35.0,-1.0
1020233,498.16064453125,131.0,1.0
1020311,498.19873046875,131.0,3.0
1020400,498.2421875,162.0,-1.0
1020606,498.3427734375,132.0,1.0
1020609,498.34423828125,133.0,3.0
1021088,498.578125,132.0,3.0
1025343,500.65576171875,34.0,-1.0
1026399,501.17138671875,42.0,-1.0
1027090,501.5087890625,131.0,0.0
1027133,501.52978515625,131.0,2.0
1027188,501.556640625,133.0,3.0
1027188,501.556640625,131.0,3.0
1027272,501.59765625,98.0,-1.0
1027362,501.6416015625,132.0,0.0
1027450,501.6845703125,133.0,2.0
1027538,501.7275390625,132.0,3.0
1027950,501.9287109375,132.0,2.0
1036289,506.00048828125,127.0,-1.0
1124556,549.099609375,63.0,-1.0
1128663,551.10498046875,34.0,-1.0
1129719,551.62060546875,35.0,-1.0
1130631,552.06591796875,131.0,1.0
1130686,552.0927734375,131.0,3.0
1130789,552.14306640625,162.0,-1.0
1131115,552.30224609375,133.0,3.0
1131294,552.3896484375,132.0,1.0
1131960,552.71484375,132.0,3.0
1135729,554.55517578125,34.0,-1.0
1136785,555.07080078125,42.0,-1.0
1137512,555.42578125,131.0,0.0
1137520,555.4296875,131.0,2.0
1137668,555.501953125,131.0,3.0
1137677,555.50634765625,98.0,-1.0
1137931,555.63037109375,132.0,0.0
1137959,555.64404296875,133.0,2.0
1138089,555.70751953125,133.0,3.0
1138090,555.7080078125,132.0,3.0
1139271,556.28466796875,132.0,2.0
1142624,557.921875,34.0,-1.0
1143680,558.4375,35.0,-1.0
1144278,558.7294921875,131.0,1.0
1144325,558.75244140625,131.0,3.0
1144391,558.78466796875,162.0,-1.0
1144634,558.9033203125,133.0,3.0
1144741,558.95556640625,132.0,1.0
1146329,559.73095703125,132.0,3.0
1149348,561.205078125,34.0,-1.0
1150404,561.720703125,38.0,-1.0
1150964,561.994140625,131.0,1.0
1151006,562.0146484375,131.0,3.0
1151070,562.0458984375,162.0,-1.0
1151311,562.16357421875,133.0,3.0
1151399,562.20654296875,132.0,1.0
1153475,563.22021484375,132.0,3.0
1156003,564.45458984375,34.0,-1.0
1157060,564.970703125,50.0,-1.0
1157840,565.3515625,131.0,0.0
1157861,565.36181640625,131.0,2.0
1157957,565.40869140625,98.0,-1.0
1158142,565.4990234375,132.0,0.0
1158196,565.525390625,133.0,2.0
1159232,566.03125,132.0,2.0
1162899,567.82177734375,34.0,-1.0
1163954,568.3369140625,38.0,-1.0
1164472,568.58984375,131.0,1.0
1164511,568.60888671875,131.0,3.0
1164597,568.65087890625,162.0,-1.0
1164805,568.75244140625,132.0,1.0
1164829,568.76416015625,133.0,3.0
1165539,569.11083984375,132.0,3.0
1169555,571.07177734375,34.0,-1.0
1170610,571.5869140625,42.0,-1.0
1171234,571.8916015625,131.0,2.0
1171235,571.89208984375,131.0,0.0
1171363,571.95458984375,98.0,-1.0
1171526,572.0341796875,132.0,0.0
1171586,572.0634765625,133.0,2.0
1172480,572.5,132.0,2.0
1176313,574.37158203125,34.0,-1.0
1177369,574.88720703125,38.0,-1.0
1177918,575.1552734375,131.0,1.0
1177966,575.1787109375,131.0,3.0
1178039,575.21435546875,162.0,-1.0
1178234,575.3095703125,132.0,1.0
1178274,575.3291015625,133.0,3.0
1178714,575.5439453125,132.0,3.0
1182968,577.62109375,34.0,-1.0
1184025,578.13720703125,42.0,-1.0
1184622,578.4287109375,131.0,0.0
1184659,578.44677734375,131.0,2.0
1184752,578.4921875,98.0,-1.0
1184947,578.58740234375,133.0,2.0
1184978,578.6025390625,132.0,0.0
1186094,579.1474609375,132.0,2.0
1189693,580.90478515625,34.0,-1.0
1190749,581.42041015625,35.0,-1.0
1191384,581.73046875,131.0,1.0
1191438,581.7568359375,131.0,3.0
1191492,581.783203125,162.0,-1.0
1191809,581.93798828125,132.0,1.0
1191816,581.94140625,133.0,3.0
1192798,582.4208984375,132.0,3.0
1196451,584.20458984375,34.0,-1.0
1197507,584.72021484375,35.0,-1.0
1198063,584.99169921875,131.0,1.0
1198118,585.0185546875,131.0,3.0
1198170,585.0439453125,162.0,-1.0
1198433,585.17236328125,132.0,1.0
1198453,585.18212890625,133.0,3.0
1199436,585.662109375,132.0,3.0
1203107,587.45458984375,34.0,-1.0
1204163,587.97021484375,42.0,-1.0
1204806,588.2841796875,131.0,0.0
1204829,588.29541015625,131.0,2.0
1204925,588.34228515625,98.0,-1.0
1205195,588.47412109375,132.0,0.0
1205209,588.48095703125,133.0,2.0
1206166,588.9482421875,132.0,2.0
1209865,590.75439453125,34.0,-1.0
1210921,591.27001953125,50.0,-1.0
1211631,591.61669921875,131.0,0.0
1211641,591.62158203125,131.0,2.0
1211747,591.67333984375,98.0,-1.0
1211947,591.77099609375,132.0,0.0
1211982,591.7880859375,133.0,2.0
1213607,592.58154296875,132.0,2.0
1216692,594.087890625,34.0,-1.0
1217748,594.603515625,50.0,-1.0
1218233,594.84033203125,131.0,1.0
1218286,594.8662109375,131.0,3.0
1218353,594.89892578125,162.0,-1.0
1218492,594.966796875,132.0,1.0
1218535,594.98779296875,133.0,3.0
1220475,595.93505859375,132.0,3.0
1223279,597.30419921875,34.0,-1.0
1224335,597.81982421875,35.0,-1.0
1224988,598.138671875,131.0,1.0
1225045,598.16650390625,131.0,3.0
1225100,598.193359375,162.0,-1.0
1225332,598.306640625,133.0,3.0
1225387,598.33349609375,132.0,1.0
1225922,598.5947265625,132.0,3.0
1230037,600.60400390625,34.0,-1.0
1231094,601.1201171875,35.0,-1.0
1231695,601.41357421875,131.0,1.0
1231761,601.44580078125,131.0,3.0
1231819,601.47412109375,162.0,-1.0
1231944,601.53515625,132.0,1.0
1232020,601.572265625,133.0,3.0
1232415,601.76513671875,132.0,3.0
1236762,603.8876953125,34.0,-1.0
1237818,604.4033203125,38.0,-1.0
1238314,604.6455078125,131.0,1.0
1238355,604.66552734375,131.0,3.0
1238416,604.6953125,162.0,-1.0
1238618,604.7939453125,133.0,3.0
1238754,604.8603515625,132.0,1.0
1239373,605.16259765625,132.0,3.0
1243349,607.10400390625,34.0,-1.0
1244405,607.61962890625,42.0,-1.0
1244984,607.90234375,131.0,0.0
1245016,607.91796875,131.0,2.0
1245104,607.9609375,98.0,-1.0
1245224,608.01953125,132.0,0.0
1245299,608.05615234375,133.0,2.0
1246074,608.4345703125,132.0,2.0
1250039,610.37060546875,34.0,-1.0
1251095,610.88623046875,38.0,-1.0
1251538,611.1025390625,131.0,1.0
1251573,611.11962890625,131.0,3.0
1251633,611.14892578125,162.0,-1.0
1251857,611.25830078125,133.0,3.0
1251931,611.29443359375,132.0,1.0
1253661,612.13916015625,132.0,3.0
1256559,613.55419921875,34.0,-1.0
1257615,614.06982421875,50.0,-1.0
1258369,614.43798828125,131.0,0.0
1258405,614.45556640625,131.0,2.0
1258486,614.4951171875,98.0,-1.0
1258589,614.54541015625,132.0,0.0
1258654,614.5771484375,133.0,2.0
1259163,614.82568359375,132.0,2.0
1263419,616.90380859375,34.0,-1.0
1264475,617.41943359375,42.0,-1.0
1265189,617.76806640625,131.0,0.0
1265253,617.79931640625,131.0,2.0
1265360,617.8515625,98.0,-1.0
1265407,617.87451171875,132.0,0.0
1265500,617.919921875,133.0,2.0
1265944,618.13671875,132.0,2.0
1270315,620.27099609375,34.0,-1.0
1271370,620.7861328125,38.0,-1.0
1271863,621.02685546875,131.0,1.0
1271898,621.0439453125,131.0,3.0
1271979,621.08349609375,162.0,-1.0
1272081,621.13330078125,132.0,1.0
1272171,621.17724609375,133.0,3.0
1272547,621.36083984375,132.0,3.0
1272804,621.486328125,192.0,-1.0
1276936,623.50390625,34.0,-1.0
1277992,624.01953125,38.0,-1.0
1278526,624.2802734375,131.0,1.0
1278587,624.31005859375,131.0,3.0
1278650,624.3408203125,162.0,-1.0
1278828,624.427734375,133.0,3.0
1278899,624.46240234375,132.0,1.0
1279323,624.66943359375,132.0,3.0
1279475,624.74365234375,192.0,-1.0
1283592,626.75390625,34.0,-1.0
1284648,627.26953125,38.0,-1.0
1285092,627.486328125,131.0,1.0
1285121,627.50048828125,131.0,3.0
1285210,627.5439453125,162.0,-1.0
1285388,627.630859375,133.0,3.0
1285419,627.64599609375,132.0,1.0
1285781,627.82275390625,132.0,3.0
1286035,627.94677734375,192.0,-1.0
1290145,629.95361328125,34.0,-1.0
1291201,630.46923828125,35.0,-1.0
1291873,630.79736328125,131.0,1.0
1291937,630.82861328125,131.0,3.0
1291982,630.8505859375,162.0,-1.0
1292123,630.91943359375,132.0,1.0
1292186,630.9501953125,133.0,3.0
1292643,631.17333984375,132.0,3.0
1296938,633.2705078125,34.0,-1.0
1297994,633.7861328125,42.0,-1.0
1298620,634.091796875,131.0,0.0
1298622,634.0927734375,131.0,2.0
1298738,634.1494140625,98.0,-1.0
1298874,634.2158203125,132.0,0.0
1298946,634.2509765625,133.0,2.0
1299563,634.55224609375,192.0,-1.0
1301064,635.28515625,132.0,2.0
1303696,636.5703125,34.0,-1.0
1304752,637.0859375,50.0,-1.0
1305533,637.46728515625,131.0,0.0
1305583,637.49169921875,131.0,2.0
1305724,637.560546875,98.0,-1.0
1305792,637.59375,132.0,0.0
1305903,637.64794921875,133.0,2.0
1306916,638.142578125,132.0,2.0
1310659,639.97021484375,34.0,-1.0
1311715,640.48583984375,50.0,-1.0
1312096,640.671875,131.0,1.0
1312167,640.70654296875,132.0,1.0
1312217,640.73095703125,131.0,3.0
1312341,640.79150390625,133.0,3.0
1312350,640.7958984375,131.0,1.0
1312444,640.841796875,132.0,1.0
1312456,640.84765625,131.0,0.0
1312481,640.85986328125,131.0,2.0
1312562,640.8994140625,98.0,-1.0
1312760,640.99609375,133.0,2.0
1312783,641.00732421875,132.0,0.0
1314018,641.6103515625,132.0,2.0
1314546,641.8681640625,132.0,3.0
1317520,643.3203125,34.0,-1.0
1318576,643.8359375,38.0,-1.0
1319042,644.0634765625,131.0,1.0
1319067,644.07568359375,131.0,3.0
1319147,644.11474609375,162.0,-1.0
1319288,644.18359375,132.0,1.0
1319351,644.21435546875,133.0,3.0
1319972,644.517578125,192.0,-1.0
1320172,644.615234375,132.0,3.0
1324108,646.537109375,34.0,-1.0
1325164,647.052734375,35.0,-1.0
1325953,647.43798828125,131.0,1.0
1326020,647.470703125,131.0,3.0
1326097,647.50830078125,162.0,-1.0
1326204,647.560546875,132.0,1.0
1326274,647.5947265625,133.0,3.0
1326695,647.80029296875,132.0,3.0
1331037,649.92041015625,34.0,-1.0
1332093,650.43603515625,42.0,-1.0
1332830,650.7958984375,131.0,0.0
1332853,650.80712890625,131.0,2.0
1332953,650.85595703125,98.0,-1.0
1333058,650.9072265625,132.0,0.0
1333128,650.94140625,133.0,2.0
1333849,651.29345703125,132.0,2.0
1337897,653.27001953125,34.0,-1.0
1338953,653.78564453125,38.0,-1.0
1339565,654.08447265625,131.0,1.0
1339612,654.107421875,131.0,3.0
1339669,654.13525390625,162.0,-1.0
1339846,654.2216796875,133.0,3.0
1340008,654.30078125,132.0,1.0
1340279,654.43310546875,132.0,3.0
1340494,654.5380859375,192.0,-1.0
1344622,656.5537109375,34.0,-1.0
1345677,657.06884765625,42.0,-1.0
1346191,657.31982421875,131.0,0.0
1346228,657.337890625,131.0,2.0
1346321,657.38330078125,131.0,3.0
1346327,657.38623046875,98.0,-1.0
1346414,657.4287109375,132.0,0.0
1346495,657.46826171875,133.0,2.0
1346604,657.521484375,133.0,3.0
1346605,657.52197265625,132.0,3.0
1347152,657.7890625,192.0,-1.0
1347355,657.88818359375,132.0,2.0
1351277,659.80322265625,34.0,-1.0
1352333,660.31884765625,42.0,-1.0
1352882,660.5869140625,131.0,0.0
1352915,660.60302734375,131.0,2.0
1352962,660.6259765625,131.0,3.0
1353014,660.6513671875,98.0,-1.0
1353112,660.69921875,132.0,0.0
1353190,660.7373046875,133.0,2.0
1353278,660.7802734375,133.0,3.0
1353279,660.78076171875,132.0,3.0
1353839,661.05419921875,192.0,-1.0
1354184,661.22265625,132.0,2.0
1357968,663.0703125,34.0,-1.0
1359023,663.58544921875,50.0,-1.0
1359696,663.9140625,131.0,0.0
1359731,663.93115234375,131.0,2.0
1359814,663.9716796875,98.0,-1.0
1359989,664.05712890625,133.0,2.0
1360031,664.07763671875,132.0,0.0
1360758,664.4326171875,132.0,2.0
1364760,666.38671875,34.0,-1.0
1365816,666.90234375,42.0,-1.0
1366436,667.205078125,131.0,0.0
1366467,667.22021484375,131.0,2.0
1366519,667.24560546875,131.0,3.0
1366565,667.26806640625,98.0,-1.0
1366659,667.31396484375,132.0,0.0
1366745,667.35595703125,133.0,2.0
1366856,667.41015625,133.0,3.0
1366857,667.41064453125,132.0,3.0
1367390,667.6708984375,192.0,-1.0
1367830,667.8857421875,132.0,2.0
1371518,669.6865234375,34.0,-1.0
1372574,670.2021484375,50.0,-1.0
1373389,670.60009765625,131.0,0.0
1373435,670.62255859375,131.0,2.0
1373507,670.65771484375,98.0,-1.0
1373715,670.75927734375,133.0,2.0
1373729,670.76611328125,132.0,0.0
1375628,671.693359375,132.0,2.0
1378447,673.06982421875,34.0,-1.0
1379503,673.58544921875,35.0,-1.0
1380248,673.94921875,131.0,1.0
1380329,673.98876953125,131.0,3.0
1380367,674.00732421875,162.0,-1.0
1380549,674.09619140625,133.0,3.0
1380568,674.10546875,132.0,1.0
1381328,674.4765625,132.0,3.0
1385308,676.419921875,34.0,-1.0
1386364,676.935546875,38.0,-1.0
1386995,677.24365234375,131.0,1.0
1387055,677.27294921875,131.0,3.0
1387134,677.3115234375,162.0,-1.0
1387263,677.37451171875,132.0,1.0
1387318,677.4013671875,133.0,3.0
1387846,677.6591796875,132.0,3.0
1392066,679.7197265625,34.0,-1.0
1393122,680.2353515625,50.0,-1.0
1393879,680.60498046875,131.0,0.0
1393907,680.61865234375,131.0,2.0
1393983,680.65576171875,98.0,-1.0
1394105,680.71533203125,132.0,0.0
1394167,680.74560546875,133.0,2.0
1394989,681.14697265625,132.0,2.0
1398927,683.06982421875,34.0,-1.0
1399983,683.58544921875,35.0,-1.0
1400731,683.95068359375,131.0,1.0
1400795,683.98193359375,131.0,3.0
1400850,684.0087890625,162.0,-1.0
1401036,684.099609375,133.0,3.0
1401065,684.11376953125,132.0,1.0
1401533,684.34228515625,132.0,3.0
1405787,686.41943359375,34.0,-1.0
1406843,686.93505859375,35.0,-1.0
1407496,687.25390625,131.0,1.0
1407539,687.27490234375,131.0,3.0
1407588,687.298828125,162.0,-1.0
1407723,687.36474609375,132.0,1.0
1407782,687.3935546875,133.0,3.0
1408413,687.70166015625,192.0,-1.0
1409017,687.99658203125,132.0,3.0
1412546,689.7197265625,34.0,-1.0
1413602,690.2353515625,50.0,-1.0
1414253,690.55322265625,131.0,0.0
1414309,690.58056640625,131.0,2.0
1414395,690.62255859375,98.0,-1.0
1414503,690.67529296875,132.0,0.0
1414578,690.7119140625,133.0,2.0
1415460,691.142578125,132.0,2.0
1419338,693.0361328125,34.0,-1.0
1420394,693.5517578125,50.0,-1.0
1421040,693.8671875,131.0,0.0
1421096,693.89453125,131.0,2.0
1421146,693.9189453125,131.0,3.0
1421181,693.93603515625,98.0,-1.0
1421267,693.97802734375,132.0,0.0
1421346,694.0166015625,133.0,2.0
1421439,694.06201171875,133.0,3.0
1421440,694.0625,132.0,3.0
1422564,694.611328125,132.0,2.0
1426131,696.35302734375,34.0,-1.0
1427186,696.8681640625,50.0,-1.0
1427830,697.1826171875,131.0,0.0
1427911,697.22216796875,131.0,2.0
1428027,697.27880859375,98.0,-1.0
1428113,697.32080078125,132.0,0.0
1428205,697.36572265625,133.0,2.0
1429090,697.7978515625,132.0,2.0
1432957,699.68603515625,34.0,-1.0
1434013,700.20166015625,35.0,-1.0
1434710,700.5419921875,131.0,1.0
1434754,700.5634765625,131.0,3.0
1434844,700.607421875,162.0,-1.0
1434958,700.6630859375,132.0,1.0
1435030,700.6982421875,133.0,3.0
1435467,700.91162109375,132.0,3.0
1439784,703.01953125,34.0,-1.0
1440840,703.53515625,50.0,-1.0
1441409,703.81298828125,131.0,3.0
1441467,703.84130859375,131.0,0.0
1441525,703.86962890625,131.0,2.0
1441616,703.9140625,98.0,-1.0
1441733,703.97119140625,132.0,0.0
1441791,703.99951171875,133.0,2.0
1442013,704.10791015625,133.0,3.0
1442317,704.25634765625,132.0,3.0
1442585,704.38720703125,132.0,2.0
1446542,706.3193359375,34.0,-1.0
1447598,706.8349609375,42.0,-1.0
1448215,707.13623046875,131.0,0.0
1448282,707.1689453125,131.0,2.0
1448311,707.18310546875,131.0,3.0
1448374,707.2138671875,98.0,-1.0
1448425,707.23876953125,132.0,0.0
1448503,707.27685546875,133.0,2.0
1449545,707.78564453125,133.0,3.0
1449546,707.7861328125,132.0,3.0
1450083,708.04833984375,132.0,2.0
1453300,709.619140625,34.0,-1.0
1454356,710.134765625,42.0,-1.0
1454877,710.38916015625,131.0,0.0
1454877,710.38916015625,131.0,2.0
1454962,710.4306640625,131.0,3.0
1455001,710.44970703125,98.0,-1.0
1455120,710.5078125,132.0,0.0
1455187,710.54052734375,133.0,2.0
1455278,710.5849609375,133.0,3.0
1455279,710.58544921875,132.0,3.0
1455560,710.72265625,132.0,2.0
1455826,710.8525390625,192.0,-1.0
1459956,712.869140625,34.0,-1.0
1461012,713.384765625,35.0,-1.0
1461694,713.7177734375,131.0,1.0
1461759,713.74951171875,131.0,3.0
1461841,713.78955078125,162.0,-1.0
1461969,713.85205078125,132.0,1.0
1462016,713.875,133.0,3.0
1462441,714.08251953125,132.0,3.0
1466783,716.20263671875,34.0,-1.0
1467839,716.71826171875,35.0,-1.0
1468771,717.17333984375,131.0,1.0
1468815,717.19482421875,131.0,3.0
1468881,717.22705078125,162.0,-1.0
1469100,717.333984375,133.0,3.0
1469211,717.38818359375,132.0,1.0
1469637,717.59619140625,132.0,3.0
1473814,719.6357421875,34.0,-1.0
1474870,720.1513671875,38.0,-1.0
1475533,720.47509765625,131.0,1.0
1475601,720.50830078125,131.0,3.0
1475667,720.54052734375,162.0,-1.0
1475850,720.6298828125,133.0,3.0
1476003,720.70458984375,132.0,1.0
1476643,721.01708984375,132.0,3.0
1480607,722.95263671875,34.0,-1.0
1481662,723.4677734375,38.0,-1.0
1482149,723.70556640625,131.0,1.0
1482200,723.73046875,131.0,3.0
1482269,723.76416015625,162.0,-1.0
1482448,723.8515625,133.0,3.0
1482537,723.89501953125,132.0,1.0
1483094,724.1669921875,192.0,-1.0
1483141,724.18994140625,132.0,3.0
1487228,726.185546875,34.0,-1.0
1488284,726.701171875,35.0,-1.0
1488992,727.046875,131.0,1.0
1489053,727.07666015625,131.0,3.0
1489113,727.10595703125,162.0,-1.0
1489307,727.20068359375,133.0,3.0
1489415,727.25341796875,132.0,1.0
1489967,727.52294921875,132.0,3.0
1494055,729.51904296875,34.0,-1.0
1495111,730.03466796875,50.0,-1.0
1495591,730.26904296875,131.0,0.0
1495637,730.29150390625,131.0,2.0
1495727,730.33544921875,98.0,-1.0
1495818,730.3798828125,132.0,0.0
1495881,730.41064453125,133.0,2.0
1496552,730.73828125,192.0,-1.0
1496877,730.89697265625,132.0,2.0
1500677,732.75244140625,34.0,-1.0
1501732,733.267578125,42.0,-1.0
1502312,733.55078125,131.0,0.0
1502340,733.564453125,131.0,2.0
1502403,733.59521484375,131.0,3.0
1502466,733.6259765625,98.0,-1.0
1502534,733.6591796875,132.0,0.0
1502646,733.7138671875,133.0,2.0
1502726,733.7529296875,133.0,3.0
1502727,733.75341796875,132.0,3.0
1503291,734.02880859375,192.0,-1.0
1503521,734.14111328125,132.0,2.0
1507400,736.03515625,34.0,-1.0
1508457,736.55126953125,42.0,-1.0
1509084,736.857421875,131.0,0.0
1509125,736.87744140625,131.0,2.0
1509233,736.93017578125,131.0,3.0
1509257,736.94189453125,98.0,-1.0
1509330,736.9775390625,132.0,0.0
1509340,736.982421875,133.0,3.0
1509384,737.00390625,132.0,3.0
1509428,737.025390625,133.0,2.0
1510283,737.44287109375,132.0,2.0
1514193,739.35205078125,34.0,-1.0
1515249,739.86767578125,42.0,-1.0
1515734,740.1044921875,131.0,2.0
1515740,740.107421875,131.0,0.0
1515857,740.16455078125,98.0,-1.0
1515975,740.22216796875,132.0,0.0
1516060,740.263671875,133.0,2.0
1516489,740.47314453125,132.0,2.0
1516682,740.5673828125,192.0,-1.0
1520815,742.58544921875,34.0,-1.0
1521871,743.10107421875,35.0,-1.0
1522560,743.4375,131.0,1.0
1522624,743.46875,131.0,3.0
1522668,743.490234375,162.0,-1.0
1522853,743.58056640625,132.0,1.0
1522879,743.59326171875,133.0,3.0
1523421,743.85791015625,132.0,3.0
1527607,745.90185546875,34.0,-1.0
1528663,746.41748046875,50.0,-1.0
1529321,746.73876953125,131.0,0.0
1529350,746.7529296875,131.0,2.0
1529384,746.76953125,131.0,3.0
1529450,746.8017578125,98.0,-1.0
1529517,746.83447265625,132.0,0.0
1529604,746.876953125,133.0,2.0
1529716,746.931640625,133.0,3.0
1529717,746.93212890625,132.0,3.0
1530518,747.3232421875,132.0,2.0
1534400,749.21875,34.0,-1.0
1535456,749.734375,38.0,-1.0
1535902,749.9521484375,131.0,1.0
1535971,749.98583984375,131.0,3.0
1536036,750.017578125,162.0,-1.0
1536185,750.09033203125,132.0,1.0
1536235,750.11474609375,133.0,3.0
1536672,750.328125,132.0,3.0
1536861,750.42041015625,192.0,-1.0
1540987,752.43505859375,34.0,-1.0
1542043,752.95068359375,38.0,-1.0
1542608,753.2265625,131.0,1.0
1542680,753.26171875,131.0,3.0
1542749,753.29541015625,162.0,-1.0
1542896,753.3671875,132.0,1.0
1542919,753.37841796875,133.0,3.0
1543321,753.57470703125,132.0,3.0
1543573,753.69775390625,192.0,-1.0
1547711,755.71826171875,34.0,-1.0
1548767,756.23388671875,50.0,-1.0
1549461,756.57275390625,131.0,0.0
1549497,756.59033203125,131.0,2.0
1549629,756.65478515625,98.0,-1.0
1549707,756.69287109375,132.0,0.0
1549797,756.73681640625,133.0,2.0
1550735,757.19482421875,132.0,2.0
1554571,759.06787109375,34.0,-1.0
1555628,759.583984375,38.0,-1.0
1556145,759.83642578125,131.0,1.0
1556194,759.8603515625,131.0,3.0
1556270,759.8974609375,162.0,-1.0
1556399,759.96044921875,132.0,1.0
1556483,760.00146484375,133.0,3.0
1557095,760.30029296875,192.0,-1.0
1557706,760.5986328125,132.0,3.0
1565293,764.30322265625,127.0,-1.0
1657042,809.1025390625,63.0,-1.0
1661168,811.1171875,34.0,-1.0
1662225,811.63330078125,42.0,-1.0
1662430,811.7333984375,131.0,2.0
1663086,812.0537109375,131.0,0.0
1663281,812.14892578125,98.0,-1.0
1663436,812.224609375,132.0,0.0
1663531,812.27099609375,133.0,2.0
1665294,813.1318359375,132.0,2.0
1668235,814.56787109375,34.0,-1.0
1669290,815.0830078125,38.0,-1.0
1669891,815.37646484375,131.0,1.0
1669983,815.42138671875,131.0,3.0
1670054,815.4560546875,162.0,-1.0
1670231,815.54248046875,132.0,1.0
1670262,815.5576171875,133.0,3.0
1670771,815.80615234375,132.0,3.0
1674993,817.86767578125,34.0,-1.0
1676048,818.3828125,38.0,-1.0
1676553,818.62939453125,131.0,1.0
1676652,818.677734375,131.0,3.0
1676692,818.697265625,162.0,-1.0
1676879,818.78857421875,132.0,1.0
1676949,818.82275390625,133.0,3.0
1677436,819.060546875,132.0,3.0
1681649,821.11767578125,34.0,-1.0
1682704,821.6328125,50.0,-1.0
1683326,821.9365234375,131.0,0.0
1683404,821.974609375,131.0,2.0
1683497,822.02001953125,98.0,-1.0
1683634,822.0869140625,132.0,0.0
1683699,822.11865234375,133.0,2.0
1684230,822.3779296875,132.0,2.0
1688441,824.43408203125,34.0,-1.0
1689497,824.94970703125,50.0,-1.0
1689947,825.16943359375,131.0,1.0
1689999,825.19482421875,131.0,3.0
1690043,825.21630859375,162.0,-1.0
1690115,825.25146484375,132.0,1.0
1690208,825.296875,133.0,3.0
1690642,825.5087890625,132.0,3.0
1694995,827.63427734375,34.0,-1.0
1696050,828.1494140625,35.0,-1.0
1696648,828.44140625,131.0,0.0
1696688,828.4609375,131.0,2.0
1696796,828.513671875,98.0,-1.0
1696831,828.53076171875,132.0,0.0
1696914,828.5712890625,133.0,2.0
1698993,829.58642578125,132.0,2.0
1701753,830.93408203125,34.0,-1.0
1702809,831.44970703125,42.0,-1.0
1703138,831.6103515625,131.0,3.0
1703186,831.6337890625,133.0,3.0
1703333,831.70556640625,131.0,0.0
1703334,831.7060546875,131.0,2.0
1703519,831.79638671875,98.0,-1.0
1703637,831.85400390625,132.0,0.0
1703720,831.89453125,133.0,2.0
1703827,831.94677734375,132.0,3.0
1704221,832.13916015625,132.0,2.0
1708477,834.21728515625,34.0,-1.0
1709533,834.73291015625,42.0,-1.0
1710154,835.0361328125,131.0,1.0
1710195,835.05615234375,132.0,1.0
1710307,835.11083984375,131.0,0.0
1710363,835.13818359375,131.0,2.0
1710410,835.1611328125,131.0,3.0
1710410,835.1611328125,133.0,3.0
1710458,835.1845703125,98.0,-1.0
1710575,835.24169921875,132.0,3.0
1710603,835.25537109375,132.0,0.0
1710649,835.27783203125,133.0,2.0
1711126,835.5107421875,132.0,2.0
1715406,837.6005859375,34.0,-1.0
1716462,838.1162109375,42.0,-1.0
1716858,838.3095703125,131.0,1.0
1716929,838.34423828125,132.0,1.0
1716983,838.37060546875,131.0,0.0
1717108,838.431640625,131.0,2.0
1717158,838.4560546875,131.0,3.0
1717198,838.4755859375,98.0,-1.0
1717210,838.4814453125,133.0,3.0
1717240,838.49609375,132.0,3.0
1717335,838.54248046875,132.0,0.0
1717384,838.56640625,133.0,2.0
1717946,838.8408203125,132.0,2.0
1722130,840.8837890625,34.0,-1.0
1723186,841.3994140625,35.0,-1.0
1723754,841.6767578125,131.0,1.0
1723881,841.73876953125,131.0,3.0
1723928,841.76171875,162.0,-1.0
1724187,841.88818359375,133.0,3.0
1724247,841.91748046875,132.0,1.0
1724607,842.09326171875,132.0,3.0
1728854,844.1669921875,34.0,-1.0
1729910,844.6826171875,35.0,-1.0
1730372,844.908203125,131.0,1.0
1730530,844.9853515625,131.0,3.0
1730588,845.013671875,162.0,-1.0
1730758,845.0966796875,132.0,1.0
1730829,845.13134765625,133.0,3.0
1731268,845.345703125,132.0,3.0
1735544,847.43359375,34.0,-1.0
1736600,847.94921875,35.0,-1.0
1737419,848.34912109375,131.0,1.0
1737506,848.3916015625,131.0,3.0
1737547,848.41162109375,162.0,-1.0
1737728,848.5,132.0,1.0
1737787,848.52880859375,133.0,3.0
1738261,848.76025390625,132.0,3.0
1742473,850.81689453125,34.0,-1.0
1743529,851.33251953125,38.0,-1.0
1744092,851.607421875,131.0,1.0
1744190,851.6552734375,131.0,3.0
1744245,851.68212890625,162.0,-1.0
1744409,851.76220703125,132.0,1.0
1744446,851.7802734375,133.0,3.0
1744857,851.98095703125,132.0,3.0
1749197,854.10009765625,34.0,-1.0
1750253,854.61572265625,50.0,-1.0
1750902,854.9326171875,131.0,0.0
1751047,855.00341796875,131.0,2.0
1751099,855.02880859375,131.0,3.0
1751177,855.06689453125,98.0,-1.0
1751382,855.1669921875,132.0,0.0
1751408,855.1796875,133.0,2.0
1751545,855.24658203125,133.0,3.0
1751546,855.2470703125,132.0,3.0
1751910,855.4248046875,132.0,2.0
1756126,857.4833984375,34.0,-1.0
1757182,857.9990234375,35.0,-1.0
1757829,858.31494140625,131.0,1.0
1757922,858.3603515625,131.0,2.0
1757931,858.36474609375,131.0,3.0
1757970,858.3837890625,162.0,-1.0
1758126,858.4599609375,132.0,1.0
1758199,858.49560546875,133.0,3.0
1758374,858.5810546875,133.0,2.0
1758375,858.58154296875,132.0,2.0
1758683,858.73193359375,132.0,3.0
1762919,860.80029296875,34.0,-1.0
1763975,861.31591796875,35.0,-1.0
1764477,861.56103515625,131.0,1.0
1764567,861.60498046875,131.0,2.0
1764580,861.611328125,131.0,3.0
1764628,861.634765625,162.0,-1.0
1764765,861.70166015625,132.0,1.0
1764833,861.73486328125,133.0,3.0
1765012,861.822265625,133.0,2.0
1765013,861.82275390625,132.0,2.0
1765269,861.94775390625,132.0,3.0
1769575,864.05029296875,34.0,-1.0
1770630,864.5654296875,38.0,-1.0
1771196,864.841796875,131.0,1.0
1771260,864.873046875,131.0,2.0
1771274,864.8798828125,131.0,3.0
1771313,864.89892578125,162.0,-1.0
1771491,864.98583984375,132.0,1.0
1771501,864.99072265625,133.0,3.0
1771663,865.06982421875,133.0,2.0
1771664,865.0703125,132.0,2.0
1771938,865.2041015625,132.0,3.0
1776265,867.31689453125,34.0,-1.0
1777320,867.83203125,35.0,-1.0
1778030,868.1787109375,131.0,1.0
1778122,868.2236328125,131.0,2.0
1778122,868.2236328125,131.0,3.0
1778163,868.24365234375,162.0,-1.0
1778287,868.30419921875,132.0,1.0
1778333,868.32666015625,133.0,3.0
1778508,868.412109375,133.0,2.0
1778509,868.41259765625,132.0,2.0
1778761,868.53564453125,132.0,3.0
1783091,870.64990234375,34.0,-1.0
1784147,871.16552734375,38.0,-1.0
1784686,871.4287109375,131.0,1.0
1784770,871.4697265625,131.0,2.0
1784774,871.4716796875,131.0,3.0
1784814,871.4912109375,162.0,-1.0
1784959,871.56201171875,132.0,1.0
1785004,871.583984375,133.0,3.0
1785176,871.66796875,133.0,2.0
1785177,871.66845703125,132.0,2.0
1785412,871.783203125,132.0,3.0
1789747,873.89990234375,34.0,-1.0
1790803,874.41552734375,38.0,-1.0
1791359,874.68701171875,131.0,1.0
1791468,874.740234375,131.0,2.0
1791478,874.7451171875,131.0,3.0
1791535,874.77294921875,162.0,-1.0
1791671,874.83935546875,132.0,1.0
1791704,874.85546875,133.0,3.0
1791858,874.9306640625,133.0,2.0
1791859,874.93115234375,132.0,2.0
1792146,875.0712890625,132.0,3.0
1796471,877.18310546875,34.0,-1.0
1797527,877.69873046875,38.0,-1.0
1798159,878.00732421875,131.0,1.0
1798273,878.06298828125,131.0,3.0
1798291,878.07177734375,131.0,2.0
1798321,878.08642578125,162.0,-1.0
1798486,878.1669921875,132.0,1.0
1798501,878.17431640625,133.0,3.0
1798661,878.25244140625,133.0,2.0
1798662,878.2529296875,132.0,2.0
1798934,878.3857421875,132.0,3.0
1803264,880.5,34.0,-1.0
1804319,881.01513671875,50.0,-1.0
1804806,881.2529296875,131.0,0.0
1804896,881.296875,131.0,2.0
1804941,881.31884765625,133.0,3.0
1804941,881.31884765625,131.0,3.0
1804984,881.33984375,98.0,-1.0
1805019,881.35693359375,132.0,3.0
1805132,881.412109375,132.0,0.0
1805136,881.4140625,133.0,2.0
1805690,881.6845703125,132.0,2.0
1805809,881.74267578125,192.0,-1.0
1809919,883.74951171875,34.0,-1.0
1810975,884.26513671875,35.0,-1.0
1811554,884.5478515625,131.0,1.0
1811672,884.60546875,131.0,3.0
1811708,884.623046875,162.0,-1.0
1811876,884.705078125,132.0,1.0
1811897,884.71533203125,133.0,3.0
1812383,884.95263671875,132.0,3.0
1812533,885.02587890625,192.0,-1.0
1816643,887.03271484375,34.0,-1.0
1817699,887.54833984375,35.0,-1.0
1818247,887.81591796875,131.0,1.0
1818366,887.8740234375,131.0,3.0
1818415,887.89794921875,131.0,2.0
1818417,887.89892578125,162.0,-1.0
1818491,887.93505859375,132.0,1.0
1818575,887.97607421875,133.0,3.0
1818717,888.04541015625,133.0,2.0
1818718,888.0458984375,132.0,2.0
1818986,888.1767578125,132.0,3.0
1819242,888.3017578125,192.0,-1.0
1823368,890.31640625,34.0,-1.0
1824424,890.83203125,42.0,-1.0
1824910,891.0693359375,131.0,0.0
1824950,891.0888671875,132.0,0.0
1825003,891.11474609375,131.0,0.0
1825101,891.16259765625,131.0,2.0
1825163,891.19287109375,131.0,3.0
1825224,891.22265625,98.0,-1.0
1825325,891.27197265625,132.0,0.0
1825385,891.30126953125,133.0,2.0
1825588,891.400390625,133.0,3.0
1825589,891.40087890625,132.0,3.0
1825878,891.5419921875,132.0,2.0
1830160,893.6328125,34.0,-1.0
1831216,894.1484375,42.0,-1.0
1831852,894.458984375,131.0,0.0
1831944,894.50390625,131.0,2.0
1832096,894.578125,98.0,-1.0
1832112,894.5859375,132.0,0.0
1832220,894.638671875,133.0,2.0
1832692,894.869140625,132.0,2.0
1837055,896.99951171875,34.0,-1.0
1838111,897.51513671875,42.0,-1.0
1838534,897.7216796875,131.0,0.0
1838597,897.75244140625,132.0,0.0
1838624,897.765625,131.0,0.0
1838698,897.8017578125,131.0,2.0
1838748,897.826171875,131.0,3.0
1838748,897.826171875,133.0,3.0
1838811,897.85693359375,98.0,-1.0
1838875,897.88818359375,132.0,0.0
1838939,897.91943359375,133.0,2.0
1839112,898.00390625,132.0,3.0
1839439,898.16357421875,132.0,2.0
1839636,898.259765625,192.0,-1.0
1843745,900.26611328125,34.0,-1.0
1844801,900.78173828125,38.0,-1.0
1845350,901.0498046875,131.0,1.0
1845455,901.10107421875,131.0,3.0
1845501,901.12353515625,162.0,-1.0
1845675,901.20849609375,133.0,3.0
1845695,901.21826171875,132.0,1.0
1846100,901.416015625,132.0,3.0
1846326,901.5263671875,192.0,-1.0
1850446,903.5380859375,34.0,-1.0
1851491,904.04833984375,35.0,-1.0
1852106,904.3486328125,131.0,1.0
1852201,904.39501953125,131.0,3.0
1852257,904.42236328125,162.0,-1.0
1852367,904.47607421875,132.0,1.0
1852418,904.5009765625,133.0,3.0
1852850,904.7119140625,132.0,3.0
1853082,904.8251953125,192.0,-1.0
1857193,906.83251953125,34.0,-1.0
1858249,907.34814453125,50.0,-1.0
1858753,907.59423828125,131.0,0.0
1858947,907.68896484375,131.0,2.0
1859024,907.7265625,131.0,3.0
1859024,907.7265625,133.0,3.0
1859116,907.771484375,132.0,0.0
1859187,907.80615234375,98.0,-1.0
1859239,907.83154296875,133.0,2.0
1859419,907.91943359375,132.0,3.0
1859665,908.03955078125,132.0,2.0
1864122,910.2158203125,34.0,-1.0
1865178,910.7314453125,42.0,-1.0
1865790,911.0302734375,131.0,0.0
1865933,911.10009765625,131.0,2.0
1865992,911.12890625,131.0,3.0
1865992,911.12890625,133.0,3.0
1866111,911.18701171875,98.0,-1.0
1866123,911.19287109375,132.0,0.0
1866221,911.24072265625,133.0,2.0
1866388,911.322265625,132.0,3.0
1866667,911.45849609375,132.0,2.0
1871051,913.59912109375,34.0,-1.0
1872107,914.11474609375,38.0,-1.0
1872512,914.3125,131.0,1.0
1872628,914.369140625,131.0,3.0
1872631,914.37060546875,131.0,2.0
1872679,914.39404296875,162.0,-1.0
1872832,914.46875,132.0,1.0
1872853,914.47900390625,133.0,3.0
1873034,914.5673828125,133.0,2.0
1873088,914.59375,132.0,2.0
1873278,914.6865234375,132.0,3.0
1873504,914.796875,192.0,-1.0
1877639,916.81591796875,34.0,-1.0
1878695,917.33154296875,38.0,-1.0
1879315,917.63427734375,131.0,1.0
1879403,917.67724609375,131.0,3.0
1879412,917.681640625,131.0,2.0
1879454,917.7021484375,162.0,-1.0
1879608,917.77734375,132.0,1.0
1879617,917.78173828125,133.0,3.0
1879778,917.8603515625,133.0,2.0
1879779,917.86083984375,132.0,2.0
1880059,917.99755859375,132.0,3.0
1880279,918.10498046875,192.0,-1.0
1884397,920.11572265625,34.0,-1.0
1885453,920.63134765625,50.0,-1.0
1885990,920.8935546875,131.0,0.0
1886165,920.97900390625,131.0,2.0
1886222,921.0068359375,133.0,3.0
1886222,921.0068359375,131.0,3.0
1886291,921.04052734375,98.0,-1.0
1886367,921.07763671875,132.0,0.0
1886454,921.1201171875,133.0,2.0
1886602,921.1923828125,132.0,3.0
1886921,921.34814453125,132.0,2.0
1891223,923.44873046875,34.0,-1.0
1892280,923.96484375,42.0,-1.0
1892910,924.2724609375,131.0,0.0
1893099,924.36474609375,131.0,2.0
1893139,924.38427734375,133.0,3.0
1893139,924.38427734375,131.0,3.0
1893216,924.421875,98.0,-1.0
1893263,924.44482421875,132.0,0.0
1893343,924.48388671875,133.0,2.0
1893480,924.55078125,132.0,3.0
1893793,924.70361328125,132.0,2.0
1898152,926.83203125,34.0,-1.0
1899209,927.34814453125,35.0,-1.0
1899832,927.65234375,131.0,1.0
1899897,927.68408203125,131.0,3.0
1899907,927.68896484375,131.0,2.0
1899948,927.708984375,162.0,-1.0
1900123,927.79443359375,133.0,3.0
1900231,927.84716796875,132.0,1.0
1900285,927.87353515625,133.0,2.0
1900286,927.8740234375,132.0,2.0
1900583,928.01904296875,132.0,3.0
1900773,928.11181640625,192.0,-1.0
1904911,930.13232421875,34.0,-1.0
1905967,930.64794921875,50.0,-1.0
1906590,930.9521484375,131.0,0.0
1906741,931.02587890625,131.0,2.0
1906807,931.05810546875,131.0,3.0
1906807,931.05810546875,133.0,3.0
1906849,931.07861328125,132.0,3.0
1906857,931.08251953125,98.0,-1.0
1906893,931.10009765625,132.0,0.0
1906983,931.14404296875,133.0,2.0
1907470,931.3818359375,132.0,2.0
1911806,933.4990234375,34.0,-1.0
1912862,934.0146484375,38.0,-1.0
1913413,934.28369140625,131.0,1.0
1913506,934.3291015625,131.0,3.0
1913554,934.3525390625,162.0,-1.0
1913712,934.4296875,133.0,3.0
1913748,934.447265625,132.0,1.0
1914178,934.6572265625,132.0,3.0
1914379,934.75537109375,192.0,-1.0
1918495,936.76513671875,34.0,-1.0
1919552,937.28125,35.0,-1.0
1920164,937.580078125,131.0,1.0
1920245,937.61962890625,131.0,3.0
1920261,937.62744140625,131.0,2.0
1920273,937.63330078125,162.0,-1.0
1920347,937.66943359375,132.0,1.0
1920440,937.71484375,133.0,3.0
1920607,937.79638671875,133.0,2.0
1920608,937.796875,132.0,2.0
1920829,937.90478515625,132.0,3.0
1921098,938.0361328125,192.0,-1.0
1925220,940.048828125,34.0,-1.0
1926276,940.564453125,50.0,-1.0
1926748,940.794921875,131.0,0.0
1926830,940.8349609375,132.0,0.0
1926905,940.87158203125,131.0,0.0
1926971,940.90380859375,131.0,2.0
1927015,940.92529296875,133.0,3.0
1927015,940.92529296875,131.0,3.0
1927059,940.94677734375,132.0,3.0
1927072,940.953125,98.0,-1.0
1927123,940.97802734375,132.0,0.0
1927215,941.02294921875,133.0,2.0
1927731,941.27490234375,132.0,2.0
1932013,943.36572265625,34.0,-1.0
1933068,943.880859375,50.0,-1.0
1933623,944.15185546875,131.0,0.0
1933780,944.228515625,131.0,2.0
1933868,944.271484375,98.0,-1.0
1933968,944.3203125,132.0,0.0
1934019,944.34521484375,133.0,2.0
1934512,944.5859375,132.0,2.0
1938804,946.681640625,34.0,-1.0
1939861,947.19775390625,50.0,-1.0
1940429,947.47509765625,131.0,0.0
1940574,947.5458984375,131.0,2.0
1940655,947.58544921875,131.0,3.0
1940753,947.63330078125,98.0,-1.0
1940754,947.6337890625,132.0,0.0
1940832,947.671875,133.0,3.0
1940853,947.68212890625,133.0,2.0
1940890,947.7001953125,132.0,3.0
1941226,947.8642578125,132.0,2.0
1945700,950.048828125,34.0,-1.0
1946756,950.564453125,38.0,-1.0
1947282,950.8212890625,131.0,1.0
1947391,950.87451171875,131.0,2.0
1947393,950.87548828125,131.0,3.0
1947435,950.89599609375,162.0,-1.0
1947539,950.94677734375,132.0,1.0
1947590,950.9716796875,133.0,3.0
1947686,951.0185546875,133.0,2.0
1947687,951.01904296875,132.0,2.0
1948012,951.177734375,132.0,3.0
1948260,951.298828125,192.0,-1.0
1952390,953.3154296875,34.0,-1.0
1953446,953.8310546875,35.0,-1.0
1953872,954.0390625,131.0,0.0
1953942,954.0732421875,132.0,0.0
1954112,954.15625,131.0,1.0
1954209,954.20361328125,131.0,3.0
1954224,954.2109375,131.0,2.0
1954246,954.2216796875,162.0,-1.0
1954332,954.263671875,132.0,1.0
1954407,954.30029296875,133.0,3.0
1954582,954.3857421875,133.0,2.0
1954603,954.39599609375,132.0,2.0
1954854,954.5185546875,132.0,3.0
1959182,956.6318359375,34.0,-1.0
1960238,957.1474609375,38.0,-1.0
1960854,957.4482421875,131.0,1.0
1960964,957.501953125,131.0,3.0
1960965,957.50244140625,131.0,2.0
1960965,957.50244140625,133.0,2.0
1961013,957.52587890625,162.0,-1.0
1961176,957.60546875,132.0,2.0
1961188,957.611328125,133.0,3.0
1961230,957.6318359375,132.0,1.0
1961610,957.8173828125,132.0,3.0
1961838,957.9287109375,192.0,-1.0
1965975,959.94873046875,34.0,-1.0
1967030,960.4638671875,42.0,-1.0
1967124,960.509765625,131.0,0.0
1967300,960.595703125,132.0,0.0
1967509,960.69775390625,131.0,0.0
1967628,960.755859375,131.0,2.0
1967696,960.7890625,131.0,3.0
1967713,960.79736328125,98.0,-1.0
1967837,960.85791015625,132.0,0.0
1967891,960.88427734375,133.0,2.0
1968028,960.951171875,133.0,3.0
1968029,960.95166015625,132.0,3.0
1968390,961.1279296875,132.0,2.0
1968538,961.2001953125,192.0,-1.0
1972665,963.21533203125,34.0,-1.0
1973720,963.73046875,35.0,-1.0
1974073,963.90283203125,131.0,0.0
1974191,963.96044921875,132.0,0.0
1974446,964.0849609375,131.0,1.0
1974537,964.12939453125,131.0,3.0
1974562,964.1416015625,162.0,-1.0
1974694,964.2060546875,132.0,1.0
1974750,964.2333984375,133.0,3.0
1975332,964.517578125,132.0,3.0
1979491,966.54833984375,34.0,-1.0
1980547,967.06396484375,50.0,-1.0
1981045,967.30712890625,131.0,0.0
1981263,967.41357421875,131.0,2.0
1981287,967.42529296875,131.0,3.0
1981391,967.47607421875,98.0,-1.0
1981424,967.4921875,132.0,0.0
1981575,967.56591796875,133.0,2.0
1981710,967.6318359375,133.0,3.0
1981711,967.63232421875,132.0,3.0
1983060,968.291015625,132.0,2.0
1986317,969.88134765625,34.0,-1.0
1987374,970.3974609375,50.0,-1.0
1988056,970.73046875,131.0,0.0
1988177,970.78955078125,131.0,2.0
1988242,970.8212890625,131.0,3.0
1988293,970.84619140625,98.0,-1.0
1988397,970.89697265625,132.0,0.0
1988473,970.93408203125,133.0,2.0
1988635,971.01318359375,133.0,3.0
1988636,971.013671875,132.0,3.0
1988921,971.15283203125,132.0,2.0
1993247,973.26513671875,34.0,-1.0
1994302,973.7802734375,42.0,-1.0
1994899,974.07177734375,131.0,0.0
1995012,974.126953125,131.0,2.0
1995056,974.1484375,133.0,3.0
1995056,974.1484375,131.0,3.0
1995133,974.18603515625,98.0,-1.0
1995199,974.21826171875,132.0,0.0
1995287,974.26123046875,133.0,2.0
1995410,974.3212890625,132.0,3.0
1995983,974.60107421875,132.0,2.0
2000073,976.59814453125,34.0,-1.0
2001129,977.11376953125,38.0,-1.0
2001707,977.39599609375,131.0,1.0
2001795,977.43896484375,131.0,3.0
2001830,977.4560546875,162.0,-1.0
2001984,977.53125,132.0,1.0
2002002,977.5400390625,133.0,3.0
2002494,977.7802734375,132.0,3.0
2002655,977.85888671875,192.0,-1.0
2006763,979.86474609375,34.0,-1.0
2007819,980.38037109375,42.0,-1.0
2008310,980.6201171875,131.0,0.0
2008347,980.63818359375,132.0,0.0
2008398,980.6630859375,131.0,0.0
2008496,980.7109375,131.0,3.0
2008496,980.7109375,133.0,3.0
2008537,980.73095703125,131.0,2.0
2008641,980.78173828125,98.0,-1.0
2008715,980.81787109375,132.0,0.0
2008780,980.849609375,133.0,2.0
2008889,980.90283203125,132.0,3.0
2009206,981.0576171875,132.0,2.0
2013590,983.1982421875,34.0,-1.0
2014646,983.7138671875,50.0,-1.0
2015092,983.931640625,131.0,0.0
2015195,983.98193359375,132.0,0.0
2015249,984.00830078125,131.0,0.0
2015346,984.0556640625,131.0,2.0
2015406,984.0849609375,131.0,3.0
2015435,984.09912109375,98.0,-1.0
2015553,984.15673828125,132.0,0.0
2015603,984.18115234375,133.0,2.0
2015715,984.23583984375,133.0,3.0
2015716,984.236328125,132.0,3.0
2016116,984.431640625,132.0,2.0
2020382,986.5146484375,34.0,-1.0
2021438,987.0302734375,38.0,-1.0
2021968,987.2890625,131.0,1.0
2022039,987.32373046875,131.0,3.0
2022069,987.33837890625,162.0,-1.0
2022265,987.43408203125,133.0,3.0
2022356,987.478515625,132.0,1.0
2022733,987.66259765625,132.0,3.0
2022894,987.7412109375,192.0,-1.0
2027004,989.748046875,34.0,-1.0
2028060,990.263671875,42.0,-1.0
2028560,990.5078125,131.0,0.0
2028704,990.578125,131.0,2.0
2028793,990.62158203125,98.0,-1.0
2028864,990.65625,132.0,0.0
2028953,990.69970703125,133.0,2.0
2029618,991.0244140625,192.0,-1.0
2030869,991.63525390625,132.0,2.0
2033728,993.03125,34.0,-1.0
2034784,993.546875,35.0,-1.0
2035486,993.8896484375,131.0,1.0
2035578,993.9345703125,131.0,2.0
2035591,993.94091796875,131.0,3.0
2035621,993.95556640625,162.0,-1.0
2035746,994.0166015625,132.0,1.0
2035802,994.0439453125,133.0,3.0
2035918,994.1005859375,133.0,2.0
2035919,994.10107421875,132.0,2.0
2036269,994.27197265625,132.0,3.0
2040554,996.3642578125,34.0,-1.0
2041610,996.8798828125,42.0,-1.0
2042043,997.09130859375,131.0,0.0
2042157,997.14697265625,132.0,0.0
2042185,997.16064453125,131.0,0.0
2042227,997.18115234375,131.0,2.0
2042271,997.20263671875,131.0,3.0
2042341,997.23681640625,98.0,-1.0
2042401,997.26611328125,132.0,0.0
2042524,997.326171875,133.0,2.0
2042642,997.3837890625,133.0,3.0
2042643,997.38427734375,132.0,3.0
2043166,997.6396484375,192.0,-1.0
2043340,997.724609375,132.0,2.0
2047278,999.6474609375,34.0,-1.0
2048335,1000.16357421875,50.0,-1.0
2048889,1000.43408203125,131.0,0.0
2049051,1000.51318359375,131.0,2.0
2049074,1000.5244140625,131.0,3.0
2049142,1000.5576171875,98.0,-1.0
2049264,1000.6171875,132.0,0.0
2049330,1000.6494140625,133.0,2.0
2049448,1000.70703125,133.0,3.0
2049449,1000.70751953125,132.0,3.0
2049953,1000.95361328125,132.0,2.0
2054071,1002.96435546875,34.0,-1.0
2055127,1003.47998046875,42.0,-1.0
2055540,1003.681640625,131.0,0.0
2055638,1003.7294921875,131.0,2.0
2055701,1003.76025390625,131.0,3.0
2055723,1003.77099609375,98.0,-1.0
2055852,1003.833984375,132.0,0.0
2055900,1003.857421875,133.0,2.0
2056119,1003.96435546875,133.0,3.0
2056134,1003.9716796875,132.0,3.0
2056378,1004.0908203125,132.0,2.0
2056548,1004.173828125,192.0,-1.0
2060658,1006.1806640625,34.0,-1.0
2061715,1006.69677734375,50.0,-1.0
2062216,1006.94140625,131.0,0.0
2062391,1007.02685546875,131.0,2.0
2062468,1007.064453125,98.0,-1.0
2062541,1007.10009765625,132.0,0.0
2062613,1007.13525390625,133.0,2.0
2062962,1007.3056640625,132.0,2.0
2063293,1007.46728515625,192.0,-1.0
2067417,1009.48095703125,34.0,-1.0
2068473,1009.99658203125,38.0,-1.0
2069121,1010.31298828125,131.0,1.0
2069219,1010.36083984375,131.0,2.0
2069230,1010.3662109375,131.0,3.0
2069261,1010.38134765625,162.0,-1.0
2069346,1010.4228515625,132.0,1.0
2069450,1010.4736328125,133.0,3.0
2069533,1010.51416015625,133.0,2.0
2069534,1010.5146484375,132.0,2.0
2070214,1010.8466796875,132.0,3.0
2074209,1012.79736328125,34.0,-1.0
2075265,1013.31298828125,42.0,-1.0
2075669,1013.51025390625,131.0,0.0
2075787,1013.56787109375,132.0,0.0
2075845,1013.59619140625,131.0,0.0
2075961,1013.65283203125,131.0,2.0
2076011,1013.67724609375,131.0,3.0
2076074,1013.7080078125,98.0,-1.0
2076192,1013.765625,132.0,0.0
2076251,1013.79443359375,133.0,2.0
2076404,1013.869140625,133.0,3.0
2076405,1013.86962890625,132.0,3.0
2076702,1014.0146484375,132.0,2.0
2081001,1016.11376953125,34.0,-1.0
2082058,1016.6298828125,50.0,-1.0
2082660,1016.923828125,131.0,0.0
2082784,1016.984375,131.0,2.0
2082857,1017.02001953125,133.0,3.0
2082857,1017.02001953125,131.0,3.0
2082888,1017.03515625,98.0,-1.0
2082990,1017.0849609375,132.0,0.0
2083059,1017.11865234375,133.0,2.0
2083189,1017.18212890625,132.0,3.0
2083634,1017.3994140625,132.0,2.0
2087828,1019.447265625,34.0,-1.0
2088884,1019.962890625,35.0,-1.0
2089527,1020.27685546875,131.0,1.0
2089595,1020.31005859375,131.0,3.0
2089621,1020.32275390625,131.0,2.0
2089636,1020.330078125,162.0,-1.0
2089818,1020.4189453125,133.0,3.0
2089824,1020.421875,132.0,1.0
2089963,1020.48974609375,133.0,2.0
2089964,1020.490234375,132.0,2.0
2090375,1020.69091796875,132.0,3.0
2090461,1020.73291015625,192.0,-1.0
2098659,1024.73583984375,127.0,-1.0
2182347,1065.59912109375,63.0,-1.0
2186471,1067.61279296875,34.0,-1.0
2187528,1068.12890625,38.0,-1.0
2188174,1068.4443359375,131.0,1.0
2188328,1068.51953125,131.0,3.0
2188359,1068.53466796875,162.0,-1.0
2188401,1068.55517578125,132.0,1.0
2188590,1068.6474609375,133.0,3.0
2189048,1068.87109375,132.0,3.0
2193299,1070.94677734375,34.0,-1.0
2194355,1071.46240234375,35.0,-1.0
2194998,1071.7763671875,131.0,1.0
2195111,1071.83154296875,131.0,3.0
2195139,1071.84521484375,162.0,-1.0
2195268,1071.908203125,132.0,1.0
2195345,1071.94580078125,133.0,3.0
2196425,1072.47314453125,132.0,3.0
2200091,1074.26318359375,34.0,-1.0
2201147,1074.77880859375,35.0,-1.0
2201669,1075.03369140625,131.0,1.0
2201758,1075.0771484375,131.0,2.0
2201768,1075.08203125,131.0,3.0
2201800,1075.09765625,162.0,-1.0
2201822,1075.1083984375,133.0,2.0
2201823,1075.10888671875,132.0,2.0
2201880,1075.13671875,132.0,1.0
2201982,1075.1865234375,133.0,3.0
2203642,1075.9970703125,132.0,3.0
2206747,1077.51318359375,34.0,-1.0
2207803,1078.02880859375,42.0,-1.0
2208269,1078.25634765625,131.0,0.0
2208302,1078.2724609375,131.0,2.0
2208525,1078.38134765625,98.0,-1.0
2208658,1078.4462890625,132.0,0.0
2208718,1078.4755859375,133.0,2.0
2209223,1078.72216796875,132.0,2.0
2213471,1080.79638671875,34.0,-1.0
2214527,1081.31201171875,42.0,-1.0
2215139,1081.61083984375,131.0,0.0
2215270,1081.6748046875,131.0,2.0
2215376,1081.7265625,98.0,-1.0
2215476,1081.775390625,132.0,0.0
2215525,1081.79931640625,133.0,2.0
2216301,1082.17822265625,132.0,2.0
2220332,1084.146484375,34.0,-1.0
2221388,1084.662109375,35.0,-1.0
2221949,1084.93603515625,131.0,1.0
2222103,1085.01123046875,131.0,3.0
2222130,1085.0244140625,162.0,-1.0
2222159,1085.03857421875,132.0,1.0
2222290,1085.1025390625,133.0,3.0
2222712,1085.30859375,132.0,3.0
2227056,1087.4296875,34.0,-1.0
2228112,1087.9453125,42.0,-1.0
2228696,1088.23046875,131.0,0.0
2228800,1088.28125,131.0,2.0
2228890,1088.3251953125,98.0,-1.0
2228962,1088.3603515625,132.0,0.0
2229050,1088.4033203125,133.0,2.0
2229579,1088.66162109375,132.0,2.0
2233814,1090.7294921875,34.0,-1.0
2234870,1091.2451171875,35.0,-1.0
2235548,1091.576171875,131.0,2.0
2235580,1091.591796875,131.0,3.0
2235672,1091.63671875,131.0,1.0
2235847,1091.72216796875,162.0,-1.0
2235887,1091.74169921875,132.0,1.0
2236025,1091.80908203125,133.0,3.0
2236163,1091.87646484375,133.0,2.0
2237763,1092.65771484375,132.0,3.0
2237773,1092.66259765625,132.0,2.0
2240777,1094.12939453125,34.0,-1.0
2241833,1094.64501953125,42.0,-1.0
2242137,1094.79345703125,131.0,0.0
2242265,1094.85595703125,132.0,0.0
2242377,1094.91064453125,131.0,0.0
2242458,1094.9501953125,131.0,2.0
2242580,1095.009765625,98.0,-1.0
2242687,1095.06201171875,132.0,0.0
2242754,1095.0947265625,133.0,2.0
2243158,1095.2919921875,132.0,2.0
2247536,1097.4296875,34.0,-1.0
2248592,1097.9453125,35.0,-1.0
2249148,1098.216796875,131.0,1.0
2249334,1098.3076171875,131.0,2.0
2249338,1098.3095703125,131.0,3.0
2249365,1098.32275390625,162.0,-1.0
2249489,1098.38330078125,132.0,1.0
2249545,1098.41064453125,133.0,3.0
2249793,1098.53173828125,133.0,2.0
2249815,1098.54248046875,132.0,2.0
2250036,1098.650390625,132.0,3.0
2254294,1100.7294921875,34.0,-1.0
2255350,1101.2451171875,38.0,-1.0
2255594,1101.3642578125,131.0,3.0
2255830,1101.4794921875,131.0,1.0
2255976,1101.55078125,162.0,-1.0
2256088,1101.60546875,132.0,1.0
2256156,1101.638671875,133.0,3.0
2256754,1101.9306640625,132.0,3.0
2260916,1103.962890625,34.0,-1.0
2261972,1104.478515625,42.0,-1.0
2262426,1104.7001953125,131.0,0.0
2262659,1104.81396484375,131.0,2.0
2262739,1104.85302734375,98.0,-1.0
2262845,1104.90478515625,132.0,0.0
2262943,1104.95263671875,133.0,2.0
2263463,1105.20654296875,132.0,2.0
2267674,1107.2626953125,34.0,-1.0
2268730,1107.7783203125,42.0,-1.0
2269076,1107.947265625,131.0,3.0
2269081,1107.94970703125,131.0,0.0
2269198,1108.0068359375,132.0,0.0
2269235,1108.02490234375,131.0,0.0
2269295,1108.05419921875,131.0,2.0
2269410,1108.1103515625,98.0,-1.0
2269444,1108.126953125,132.0,0.0
2269555,1108.18115234375,133.0,2.0
2269685,1108.24462890625,133.0,3.0
2269686,1108.2451171875,132.0,3.0
2270502,1108.6435546875,132.0,2.0
2274364,1110.529296875,34.0,-1.0
2275420,1111.044921875,35.0,-1.0
2275756,1111.208984375,131.0,0.0
2275872,1111.265625,132.0,0.0
2275955,1111.30615234375,131.0,1.0
2276125,1111.38916015625,133.0,2.0
2276125,1111.38916015625,131.0,2.0
2276148,1111.400390625,131.0,3.0
2276187,1111.41943359375,162.0,-1.0
2276203,1111.42724609375,132.0,2.0
2276299,1111.47412109375,132.0,1.0
2276424,1111.53515625,133.0,3.0
2276845,1111.74072265625,132.0,3.0
2281122,1113.8291015625,34.0,-1.0
2282178,1114.3447265625,38.0,-1.0
2282722,1114.6103515625,131.0,1.0
2282824,1114.66015625,131.0,3.0
2282867,1114.68115234375,162.0,-1.0
2282953,1114.72314453125,132.0,1.0
2283042,1114.7666015625,133.0,3.0
2283475,1114.97802734375,132.0,3.0
2287813,1117.09619140625,34.0,-1.0
2288868,1117.611328125,38.0,-1.0
2289272,1117.80859375,131.0,1.0
2289424,1117.8828125,131.0,3.0
2289466,1117.9033203125,162.0,-1.0
2289603,1117.97021484375,132.0,1.0
2289666,1118.0009765625,133.0,3.0
2290278,1118.2998046875,132.0,3.0
2294400,1120.3125,34.0,-1.0
2295456,1120.828125,38.0,-1.0
2295828,1121.009765625,131.0,1.0
2295963,1121.07568359375,131.0,3.0
2296015,1121.10107421875,162.0,-1.0
2296097,1121.14111328125,132.0,1.0
2296195,1121.18896484375,133.0,3.0
2296548,1121.361328125,132.0,3.0
2300954,1123.5126953125,34.0,-1.0
2302009,1124.02783203125,50.0,-1.0
2302569,1124.30126953125,131.0,0.0
2302729,1124.37939453125,131.0,2.0
2302806,1124.4169921875,98.0,-1.0
2302994,1124.5087890625,132.0,0.0
2303023,1124.52294921875,133.0,2.0
2303455,1124.73388671875,132.0,2.0
2307746,1126.8291015625,34.0,-1.0
2308802,1127.3447265625,50.0,-1.0
2309401,1127.63720703125,131.0,0.0
2309532,1127.701171875,131.0,2.0
2309589,1127.72900390625,131.0,3.0
2309661,1127.76416015625,98.0,-1.0
2309708,1127.787109375,132.0,0.0
2309826,1127.8447265625,133.0,2.0
2309949,1127.90478515625,133.0,3.0
2309950,1127.9052734375,132.0,3.0
2310568,1128.20703125,132.0,2.0
2314607,1130.17919921875,34.0,-1.0
2315663,1130.69482421875,42.0,-1.0
2316193,1130.95361328125,131.0,0.0
2316341,1131.02587890625,131.0,2.0
2316408,1131.05859375,98.0,-1.0
2316517,1131.11181640625,132.0,0.0
2316602,1131.1533203125,133.0,2.0
2317047,1131.37060546875,132.0,2.0
2321365,1133.47900390625,34.0,-1.0
2322421,1133.99462890625,50.0,-1.0
2323103,1134.32763671875,131.0,0.0
2323217,1134.38330078125,131.0,2.0
2323279,1134.41357421875,131.0,3.0
2323334,1134.4404296875,98.0,-1.0
2323402,1134.4736328125,132.0,0.0
2323501,1134.52197265625,133.0,2.0
2323618,1134.5791015625,133.0,3.0
2323619,1134.57958984375,132.0,3.0
2323902,1134.7177734375,132.0,2.0
2328259,1136.84521484375,34.0,-1.0
2329316,1137.361328125,50.0,-1.0
2329895,1137.64404296875,131.0,0.0
2330047,1137.71826171875,131.0,2.0
2330127,1137.75732421875,98.0,-1.0
2330169,1137.77783203125,132.0,0.0
2330276,1137.830078125,133.0,2.0
2330627,1138.00146484375,132.0,2.0
2335052,1140.162109375,34.0,-1.0
2336108,1140.677734375,38.0,-1.0
2336622,1140.9287109375,131.0,1.0
2336728,1140.98046875,131.0,2.0
2336741,1140.98681640625,131.0,3.0
2336770,1141.0009765625,162.0,-1.0
2336930,1141.0791015625,132.0,1.0
2336979,1141.10302734375,133.0,3.0
2337115,1141.16943359375,133.0,2.0
2337204,1141.212890625,132.0,2.0
2337595,1141.40380859375,192.0,-1.0
2338092,1141.646484375,132.0,3.0
2341708,1143.412109375,34.0,-1.0
2342764,1143.927734375,35.0,-1.0
2343226,1144.1533203125,131.0,0.0
2343284,1144.181640625,132.0,0.0
2343341,1144.20947265625,131.0,0.0
2343427,1144.25146484375,132.0,0.0
2343428,1144.251953125,131.0,2.0
2343517,1144.29541015625,131.0,1.0
2343554,1144.3134765625,133.0,2.0
2343601,1144.33642578125,131.0,3.0
2343641,1144.35595703125,162.0,-1.0
2343735,1144.40185546875,132.0,1.0
2343783,1144.42529296875,132.0,2.0
2343830,1144.4482421875,133.0,3.0
2344405,1144.72900390625,132.0,3.0
2348568,1146.76171875,34.0,-1.0
2349625,1147.27783203125,38.0,-1.0
2350084,1147.501953125,131.0,1.0
2350150,1147.5341796875,131.0,3.0
2350175,1147.54638671875,131.0,2.0
2350209,1147.56298828125,162.0,-1.0
2350305,1147.60986328125,132.0,1.0
2350389,1147.65087890625,133.0,3.0
2350528,1147.71875,133.0,2.0
2350529,1147.71923828125,132.0,2.0
2350862,1147.8818359375,132.0,3.0
2351035,1147.96630859375,192.0,-1.0
2355157,1149.97900390625,34.0,-1.0
2356212,1150.494140625,38.0,-1.0
2356767,1150.76513671875,131.0,1.0
2356843,1150.80224609375,131.0,3.0
2356882,1150.8212890625,131.0,2.0
2356911,1150.83544921875,162.0,-1.0
2356998,1150.8779296875,132.0,1.0
2357074,1150.9150390625,133.0,3.0
2357195,1150.97412109375,133.0,2.0
2357196,1150.974609375,132.0,2.0
2357542,1151.1435546875,132.0,3.0
2357736,1151.23828125,192.0,-1.0
2361846,1153.2451171875,34.0,-1.0
2362902,1153.7607421875,38.0,-1.0
2363377,1153.99267578125,131.0,1.0
2363486,1154.0458984375,131.0,3.0
2363518,1154.0615234375,131.0,2.0
2363536,1154.0703125,162.0,-1.0
2363637,1154.11962890625,132.0,1.0
2363713,1154.15673828125,133.0,3.0
2363895,1154.24560546875,133.0,2.0
2363912,1154.25390625,132.0,2.0
2364172,1154.380859375,132.0,3.0
2364361,1154.47314453125,192.0,-1.0
2368468,1156.478515625,34.0,-1.0
2369524,1156.994140625,42.0,-1.0
2369946,1157.2001953125,131.0,0.0
2370111,1157.28076171875,131.0,2.0
2370213,1157.33056640625,98.0,-1.0
2370279,1157.36279296875,132.0,0.0
2370355,1157.39990234375,133.0,2.0
2370780,1157.607421875,132.0,2.0
2371038,1157.7333984375,192.0,-1.0
2375158,1159.7451171875,34.0,-1.0
2376214,1160.2607421875,38.0,-1.0
2376599,1160.44873046875,131.0,1.0
2376682,1160.4892578125,131.0,3.0
2376726,1160.5107421875,162.0,-1.0
2376890,1160.5908203125,132.0,1.0
2376931,1160.61083984375,133.0,3.0
2377426,1160.8525390625,132.0,3.0
2377551,1160.91357421875,192.0,-1.0
2381678,1162.9287109375,34.0,-1.0
2382733,1163.44384765625,42.0,-1.0
2383331,1163.73583984375,131.0,0.0
2383473,1163.80517578125,131.0,2.0
2383525,1163.83056640625,133.0,3.0
2383525,1163.83056640625,131.0,3.0
2383592,1163.86328125,98.0,-1.0
2383657,1163.89501953125,132.0,0.0
2383750,1163.9404296875,133.0,2.0
2383883,1164.00537109375,132.0,3.0
2384164,1164.142578125,132.0,2.0
2388538,1166.2783203125,34.0,-1.0
2389594,1166.7939453125,38.0,-1.0
2390038,1167.0107421875,131.0,1.0
2390173,1167.07666015625,131.0,3.0
2390216,1167.09765625,162.0,-1.0
2390287,1167.13232421875,132.0,1.0
2390398,1167.1865234375,133.0,3.0
2390844,1167.404296875,132.0,3.0
2391041,1167.50048828125,192.0,-1.0
2395160,1169.51171875,34.0,-1.0
2396216,1170.02734375,35.0,-1.0
2396572,1170.201171875,131.0,0.0
2396753,1170.28955078125,131.0,2.0
2396843,1170.33349609375,132.0,0.0
2396903,1170.36279296875,131.0,1.0
2396939,1170.38037109375,131.0,0.0
2396962,1170.3916015625,133.0,2.0
2396981,1170.40087890625,132.0,0.0
2397006,1170.4130859375,131.0,3.0
2397052,1170.435546875,162.0,-1.0
2397203,1170.50927734375,132.0,1.0
2397273,1170.54345703125,133.0,3.0
2397574,1170.6904296875,132.0,2.0
2399282,1171.5244140625,132.0,3.0
2401986,1172.8447265625,34.0,-1.0
2403042,1173.3603515625,35.0,-1.0
2403641,1173.65283203125,131.0,1.0
2403689,1173.67626953125,131.0,3.0
2403731,1173.69677734375,131.0,2.0
2403755,1173.70849609375,162.0,-1.0
2403975,1173.81591796875,133.0,3.0
2404047,1173.85107421875,133.0,2.0
2404048,1173.8515625,132.0,2.0
2404117,1173.88525390625,132.0,1.0
2404581,1174.11181640625,192.0,-1.0
2404856,1174.24609375,132.0,3.0
2408711,1176.12841796875,34.0,-1.0
2409767,1176.64404296875,42.0,-1.0
2410457,1176.98095703125,131.0,0.0
2410574,1177.0380859375,131.0,2.0
2410655,1177.07763671875,131.0,3.0
2410757,1177.12744140625,132.0,0.0
2410760,1177.12890625,98.0,-1.0
2410889,1177.19189453125,133.0,2.0
2410998,1177.2451171875,133.0,3.0
2410999,1177.24560546875,132.0,3.0
2411312,1177.3984375,132.0,2.0
2415708,1179.544921875,34.0,-1.0
2416764,1180.060546875,38.0,-1.0
2417308,1180.326171875,131.0,1.0
2417371,1180.35693359375,131.0,3.0
2417419,1180.38037109375,162.0,-1.0
2417601,1180.46923828125,132.0,1.0
2417628,1180.482421875,133.0,3.0
2418244,1180.783203125,192.0,-1.0
2419083,1181.19287109375,132.0,3.0
2422364,1182.794921875,34.0,-1.0
2423420,1183.310546875,50.0,-1.0
2423910,1183.5498046875,131.0,0.0
2424014,1183.6005859375,132.0,0.0
2424073,1183.62939453125,131.0,0.0
2424223,1183.70263671875,131.0,2.0
2424308,1183.744140625,131.0,3.0
2424326,1183.7529296875,98.0,-1.0
2424407,1183.79248046875,132.0,0.0
2424498,1183.8369140625,133.0,2.0
2424634,1183.9033203125,133.0,3.0
2424635,1183.90380859375,132.0,3.0
2425029,1184.09619140625,132.0,2.0
2429258,1186.1611328125,34.0,-1.0
2430315,1186.67724609375,42.0,-1.0
2430851,1186.93896484375,131.0,0.0
2430994,1187.0087890625,131.0,2.0
2431080,1187.05078125,98.0,-1.0
2431214,1187.1162109375,132.0,0.0
2431273,1187.14501953125,133.0,2.0
2432257,1187.62548828125,132.0,2.0
2436016,1189.4609375,34.0,-1.0
2437073,1189.97705078125,38.0,-1.0
2437480,1190.17578125,131.0,1.0
2437508,1190.189453125,131.0,3.0
2437584,1190.2265625,162.0,-1.0
2437702,1190.2841796875,132.0,1.0
2437790,1190.3271484375,133.0,3.0
2438409,1190.62939453125,192.0,-1.0
2438549,1190.69775390625,132.0,3.0
2442536,1192.64453125,34.0,-1.0
2443592,1193.16015625,35.0,-1.0
2444211,1193.46240234375,131.0,1.0
2444267,1193.48974609375,131.0,3.0
2444282,1193.4970703125,131.0,2.0
2444319,1193.51513671875,162.0,-1.0
2444464,1193.5859375,132.0,1.0
2444521,1193.61376953125,133.0,3.0
2444630,1193.6669921875,133.0,2.0
2444631,1193.66748046875,132.0,2.0
2444996,1193.845703125,132.0,3.0
2445144,1193.91796875,192.0,-1.0
2449260,1195.927734375,34.0,-1.0
2450316,1196.443359375,38.0,-1.0
2450661,1196.61181640625,131.0,0.0
2450709,1196.63525390625,132.0,0.0
2450930,1196.7431640625,131.0,1.0
2450996,1196.775390625,131.0,2.0
2451002,1196.7783203125,131.0,3.0
2451059,1196.80615234375,162.0,-1.0
2451165,1196.85791015625,132.0,1.0
2451231,1196.89013671875,133.0,3.0
2451334,1196.9404296875,133.0,2.0
2451335,1196.94091796875,132.0,2.0
2451760,1197.1484375,132.0,3.0
2451884,1197.208984375,192.0,-1.0
2456019,1199.22802734375,34.0,-1.0
2457075,1199.74365234375,42.0,-1.0
2457472,1199.9375,131.0,0.0
2457734,1200.0654296875,131.0,2.0
2457786,1200.0908203125,131.0,3.0
2457786,1200.0908203125,133.0,3.0
2457867,1200.13037109375,132.0,0.0
2457959,1200.17529296875,98.0,-1.0
2458010,1200.2001953125,133.0,2.0
2458146,1200.2666015625,132.0,3.0
2458402,1200.3916015625,132.0,2.0
2462914,1202.5947265625,34.0,-1.0
2463969,1203.10986328125,42.0,-1.0
2464675,1203.45458984375,131.0,0.0
2464850,1203.5400390625,131.0,2.0
2464880,1203.5546875,133.0,3.0
2464880,1203.5546875,131.0,3.0
2464945,1203.58642578125,98.0,-1.0
2464985,1203.60595703125,132.0,0.0
2465089,1203.65673828125,133.0,2.0
2465254,1203.7373046875,132.0,3.0
2465604,1203.908203125,132.0,2.0
2469876,1205.994140625,34.0,-1.0
2470933,1206.51025390625,42.0,-1.0
2471538,1206.8056640625,131.0,0.0
2471631,1206.85107421875,131.0,2.0
2471662,1206.8662109375,131.0,3.0
2471755,1206.91162109375,98.0,-1.0
2471801,1206.93408203125,132.0,0.0
2471913,1206.98876953125,133.0,2.0
2472095,1207.07763671875,133.0,3.0
2472096,1207.078125,132.0,3.0
2472317,1207.18603515625,132.0,2.0
2476703,1209.32763671875,34.0,-1.0
2477759,1209.84326171875,50.0,-1.0
2478456,1210.18359375,131.0,0.0
2478513,1210.21142578125,131.0,2.0
2478561,1210.23486328125,133.0,3.0
2478561,1210.23486328125,131.0,3.0
2478665,1210.28564453125,98.0,-1.0
2478690,1210.2978515625,132.0,0.0
2478794,1210.3486328125,133.0,2.0
2478923,1210.41162109375,132.0,3.0
2479137,1210.51611328125,132.0,2.0
2483598,1212.6943359375,34.0,-1.0
2484654,1213.2099609375,38.0,-1.0
2484970,1213.3642578125,131.0,1.0
2485059,1213.40771484375,132.0,1.0
2485159,1213.45654296875,131.0,1.0
2485218,1213.4853515625,131.0,2.0
2485224,1213.48828125,131.0,3.0
2485273,1213.51220703125,162.0,-1.0
2485400,1213.57421875,132.0,1.0
2485461,1213.60400390625,133.0,3.0
2485645,1213.69384765625,133.0,2.0
2485679,1213.71044921875,132.0,2.0
2486001,1213.86767578125,132.0,3.0
2486098,1213.9150390625,192.0,-1.0
2490220,1215.927734375,34.0,-1.0
2491276,1216.443359375,50.0,-1.0
2491864,1216.73046875,131.0,0.0
2491987,1216.79052734375,132.0,0.0
2492018,1216.8056640625,131.0,0.0
2492027,1216.81005859375,131.0,2.0
2492092,1216.841796875,131.0,3.0
2492136,1216.86328125,98.0,-1.0
2492195,1216.89208984375,132.0,0.0
2492300,1216.943359375,133.0,2.0
2492439,1217.01123046875,133.0,3.0
2492440,1217.01171875,132.0,3.0
2492769,1217.17236328125,132.0,2.0
2497081,1219.27783203125,34.0,-1.0
2498136,1219.79296875,38.0,-1.0
2498775,1220.10498046875,131.0,1.0
2498880,1220.15625,131.0,3.0
2498925,1220.17822265625,162.0,-1.0
2499048,1220.23828125,132.0,1.0
2499103,1220.26513671875,133.0,3.0
2499714,1220.5634765625,132.0,3.0
2503873,1222.59423828125,34.0,-1.0
2504929,1223.10986328125,50.0,-1.0
2505598,1223.4365234375,131.0,0.0
2505770,1223.5205078125,131.0,2.0
2505816,1223.54296875,133.0,3.0
2505816,1223.54296875,131.0,3.0
2505887,1223.57763671875,132.0,0.0
2505936,1223.6015625,98.0,-1.0
2506041,1223.65283203125,133.0,2.0
2506157,1223.70947265625,132.0,3.0
2506413,1223.83447265625,132.0,2.0
2510870,1226.0107421875,34.0,-1.0
2511926,1226.5263671875,35.0,-1.0
2512648,1226.87890625,131.0,1.0
2512769,1226.93798828125,131.0,2.0
2512778,1226.9423828125,131.0,3.0
2512834,1226.9697265625,162.0,-1.0
2512918,1227.0107421875,132.0,1.0
2512991,1227.04638671875,133.0,3.0
2513140,1227.119140625,133.0,2.0
2513141,1227.11962890625,132.0,2.0
2513532,1227.310546875,132.0,3.0
2517764,1229.376953125,34.0,-1.0
2518821,1229.89306640625,35.0,-1.0
2519563,1230.25537109375,131.0,1.0
2519719,1230.33154296875,131.0,2.0
2519734,1230.3388671875,131.0,3.0
2519820,1230.380859375,162.0,-1.0
2519885,1230.41259765625,132.0,1.0
2520011,1230.47412109375,133.0,3.0
2520170,1230.5517578125,133.0,2.0
2520171,1230.55224609375,132.0,2.0
2520969,1230.94189453125,132.0,3.0
2524762,1232.7939453125,34.0,-1.0
2525818,1233.3095703125,35.0,-1.0
2526206,1233.4990234375,131.0,0.0
2526317,1233.55322265625,132.0,0.0
2526441,1233.61376953125,131.0,1.0
2526539,1233.66162109375,131.0,3.0
2526547,1233.66552734375,131.0,2.0
2526603,1233.69287109375,162.0,-1.0
2526676,1233.728515625,132.0,1.0
2526775,1233.77685546875,133.0,3.0
2526915,1233.84521484375,133.0,2.0
2526927,1233.85107421875,132.0,2.0
2527441,1234.10205078125,132.0,3.0
2531555,1236.11083984375,34.0,-1.0
2532610,1236.6259765625,50.0,-1.0
2533157,1236.89306640625,131.0,0.0
2533348,1236.986328125,131.0,2.0
2533383,1237.00341796875,131.0,3.0
2533470,1237.0458984375,98.0,-1.0
2533524,1237.072265625,132.0,0.0
2533592,1237.10546875,133.0,2.0
2533646,1237.1318359375,133.0,3.0
2533647,1237.13232421875,132.0,3.0
2534040,1237.32421875,132.0,2.0
2538415,1239.46044921875,34.0,-1.0
2539471,1239.97607421875,42.0,-1.0
2539758,1240.1162109375,131.0,0.0
2539911,1240.19091796875,132.0,0.0
2540016,1240.2421875,131.0,0.0
2540210,1240.3369140625,131.0,2.0
2540250,1240.3564453125,131.0,3.0
2540250,1240.3564453125,133.0,3.0
2540340,1240.400390625,98.0,-1.0
2540348,1240.404296875,132.0,0.0
2540441,1240.44970703125,133.0,2.0
2540486,1240.4716796875,132.0,3.0
2540973,1240.70947265625,132.0,2.0
2545275,1242.81005859375,34.0,-1.0
2546332,1243.326171875,50.0,-1.0
2546879,1243.59326171875,131.0,0.0
2547033,1243.66845703125,131.0,2.0
2547069,1243.68603515625,131.0,3.0
2547171,1243.73583984375,132.0,0.0
2547583,1243.93701171875,133.0,3.0
2548074,1244.1767578125,131.0,0.0
2548221,1244.24853515625,98.0,-1.0
2548397,1244.33447265625,132.0,0.0
2548431,1244.35107421875,133.0,2.0
2548558,1244.4130859375,132.0,3.0
2548864,1244.5625,132.0,2.0
2553161,1246.66064453125,34.0,-1.0
2554216,1247.17578125,42.0,-1.0
2554889,1247.50439453125,131.0,0.0
2554934,1247.5263671875,131.0,2.0
2554982,1247.5498046875,131.0,3.0
2554982,1247.5498046875,133.0,3.0
2555052,1247.583984375,98.0,-1.0
2555136,1247.625,132.0,0.0
2555253,1247.68212890625,133.0,2.0
2555316,1247.712890625,132.0,3.0
2555674,1247.8876953125,132.0,2.0
2559987,1249.99365234375,34.0,-1.0
2561043,1250.50927734375,50.0,-1.0
2561745,1250.85205078125,131.0,0.0
2561788,1250.873046875,131.0,2.0
2561853,1250.90478515625,131.0,3.0
2561922,1250.9384765625,132.0,0.0
2561940,1250.947265625,98.0,-1.0
2562056,1251.00390625,133.0,2.0
2562192,1251.0703125,133.0,3.0
2562193,1251.07080078125,132.0,3.0
2562469,1251.20556640625,132.0,2.0
2566882,1253.3603515625,34.0,-1.0
2567938,1253.8759765625,50.0,-1.0
2568605,1254.20166015625,131.0,0.0
2568655,1254.22607421875,131.0,2.0
2568769,1254.28173828125,98.0,-1.0
2568828,1254.310546875,132.0,0.0
2568958,1254.3740234375,133.0,2.0
2569404,1254.591796875,132.0,2.0
2573709,1256.69384765625,34.0,-1.0
2574764,1257.208984375,50.0,-1.0
2575518,1257.5771484375,131.0,0.0
2575589,1257.61181640625,131.0,2.0
2575643,1257.63818359375,131.0,3.0
2575738,1257.6845703125,98.0,-1.0
2575771,1257.70068359375,132.0,0.0
2575905,1257.76611328125,133.0,2.0
2576021,1257.82275390625,133.0,3.0
2576022,1257.8232421875,132.0,3.0
2576379,1257.99755859375,132.0,2.0
2580671,1260.09326171875,34.0,-1.0
2581728,1260.609375,35.0,-1.0
2582345,1260.91064453125,131.0,1.0
2582452,1260.962890625,131.0,3.0
2582498,1260.9853515625,162.0,-1.0
2582595,1261.03271484375,132.0,1.0
2582672,1261.0703125,133.0,3.0
2583136,1261.296875,132.0,3.0
2587429,1263.39306640625,34.0,-1.0
2588486,1263.9091796875,50.0,-1.0
2588976,1264.1484375,131.0,0.0
2589197,1264.25634765625,131.0,2.0
2589234,1264.2744140625,131.0,3.0
2589295,1264.30419921875,98.0,-1.0
2589381,1264.34619140625,132.0,0.0
2589479,1264.39404296875,133.0,2.0
2589586,1264.4462890625,133.0,3.0
2589587,1264.44677734375,132.0,3.0
2589908,1264.603515625,132.0,2.0
2594222,1266.7099609375,34.0,-1.0
2595278,1267.2255859375,35.0,-1.0
2595741,1267.45166015625,131.0,0.0
2595858,1267.5087890625,132.0,0.0
2595955,1267.55615234375,131.0,1.0
2596039,1267.59716796875,131.0,2.0
2596052,1267.603515625,131.0,3.0
2596090,1267.6220703125,162.0,-1.0
2596221,1267.68603515625,132.0,1.0
2596257,1267.70361328125,133.0,3.0
2596608,1267.875,133.0,2.0
2596721,1267.93017578125,132.0,2.0
2596807,1267.97216796875,132.0,3.0
2601049,1270.04345703125,34.0,-1.0
2602105,1270.55908203125,50.0,-1.0
2602578,1270.7900390625,131.0,0.0
2602785,1270.89111328125,131.0,2.0
2602815,1270.90576171875,131.0,3.0
2602815,1270.90576171875,133.0,3.0
2602954,1270.9736328125,132.0,0.0
2602979,1270.98583984375,98.0,-1.0
2603093,1271.04150390625,133.0,2.0
2603267,1271.12646484375,132.0,3.0
2603551,1271.26513671875,132.0,2.0
2607909,1273.39306640625,34.0,-1.0
2608965,1273.90869140625,35.0,-1.0
2609858,1274.3447265625,131.0,1.0
2609945,1274.38720703125,131.0,3.0
2609999,1274.41357421875,162.0,-1.0
2610052,1274.439453125,132.0,1.0
2610170,1274.4970703125,133.0,3.0
2610707,1274.75927734375,132.0,3.0
2614940,1276.826171875,34.0,-1.0
2615997,1277.34228515625,50.0,-1.0
2616661,1277.66650390625,131.0,0.0
2616694,1277.6826171875,132.0,0.0
2616732,1277.701171875,131.0,0.0
2616787,1277.72802734375,131.0,2.0
2616835,1277.75146484375,131.0,3.0
2616921,1277.79345703125,98.0,-1.0
2617002,1277.8330078125,132.0,0.0
2617089,1277.87548828125,133.0,2.0
2617263,1277.96044921875,133.0,3.0
2617264,1277.9609375,132.0,3.0
2617511,1278.08154296875,132.0,2.0
2625938,1282.1962890625,127.0,-1.0
2706137,1321.35595703125,63.0,-1.0
2710239,1323.35888671875,34.0,-1.0
2711296,1323.875,35.0,-1.0
2712163,1324.29833984375,131.0,1.0
2712289,1324.35986328125,131.0,2.0
2712293,1324.36181640625,131.0,3.0
2712349,1324.38916015625,162.0,-1.0
2712497,1324.46142578125,132.0,1.0
2712569,1324.49658203125,133.0,3.0
2713009,1324.71142578125,132.0,3.0
2713671,1325.03466796875,133.0,2.0
2714301,1325.34228515625,132.0,2.0
2717305,1326.80908203125,34.0,-1.0
2718361,1327.32470703125,35.0,-1.0
2718920,1327.59765625,131.0,1.0
2719101,1327.68603515625,131.0,3.0
2719151,1327.71044921875,162.0,-1.0
2719248,1327.7578125,132.0,1.0
2719341,1327.80322265625,133.0,3.0
2719824,1328.0390625,132.0,3.0
2724097,1330.12548828125,34.0,-1.0
2725153,1330.64111328125,35.0,-1.0
2725660,1330.888671875,131.0,1.0
2725805,1330.95947265625,131.0,3.0
2725835,1330.97412109375,131.0,2.0
2725835,1330.97412109375,133.0,2.0
2725851,1330.98193359375,162.0,-1.0
2725856,1330.984375,132.0,2.0
2725905,1331.00830078125,132.0,1.0
2726008,1331.05859375,133.0,3.0
2726419,1331.25927734375,132.0,3.0
2730786,1333.3916015625,34.0,-1.0
2731843,1333.90771484375,50.0,-1.0
2732391,1334.17529296875,131.0,0.0
2732477,1334.21728515625,131.0,2.0
2732523,1334.23974609375,131.0,3.0
2732576,1334.265625,132.0,0.0
2733582,1334.7568359375,131.0,0.0
2733671,1334.80029296875,98.0,-1.0
2733846,1334.8857421875,132.0,0.0
2733926,1334.9248046875,133.0,2.0
2734169,1335.04345703125,133.0,3.0
2734333,1335.12353515625,132.0,3.0
2734356,1335.134765625,132.0,2.0
2738603,1337.20849609375,34.0,-1.0
2739660,1337.724609375,42.0,-1.0
2739915,1337.84912109375,131.0,2.0
2740317,1338.04541015625,131.0,0.0
2740511,1338.14013671875,131.0,3.0
2740515,1338.14208984375,98.0,-1.0
2740664,1338.21484375,132.0,0.0
2740758,1338.2607421875,133.0,2.0
2740863,1338.31201171875,133.0,3.0
2740864,1338.3125,132.0,3.0
2742028,1338.880859375,132.0,2.0
2745464,1340.55859375,34.0,-1.0
2746521,1341.07470703125,38.0,-1.0
2747132,1341.373046875,131.0,1.0
2747224,1341.41796875,131.0,3.0
2747273,1341.44189453125,162.0,-1.0
2747532,1341.568359375,132.0,1.0
2747568,1341.5859375,133.0,3.0
2748405,1341.99462890625,132.0,3.0
2752222,1343.8583984375,34.0,-1.0
2753279,1344.37451171875,38.0,-1.0
2753763,1344.61083984375,131.0,1.0
2753830,1344.6435546875,131.0,3.0
2753885,1344.67041015625,162.0,-1.0
2754180,1344.814453125,133.0,3.0
2754196,1344.822265625,132.0,1.0
2755940,1345.673828125,132.0,3.0
2758809,1347.07470703125,34.0,-1.0
2759866,1347.5908203125,38.0,-1.0
2760334,1347.8193359375,131.0,1.0
2760386,1347.8447265625,131.0,3.0
2760453,1347.87744140625,162.0,-1.0
2760693,1347.99462890625,132.0,1.0
2760762,1348.0283203125,133.0,3.0
2761654,1348.4638671875,132.0,3.0
2765398,1350.2919921875,34.0,-1.0
2766454,1350.8076171875,38.0,-1.0
2766973,1351.06103515625,131.0,1.0
2767013,1351.08056640625,131.0,3.0
2767088,1351.1171875,162.0,-1.0
2767314,1351.2275390625,132.0,1.0
2767350,1351.2451171875,133.0,3.0
2768782,1351.9443359375,132.0,3.0
2772019,1353.52490234375,34.0,-1.0
2773076,1354.041015625,38.0,-1.0
2773542,1354.2685546875,131.0,1.0
2773572,1354.283203125,131.0,3.0
2773632,1354.3125,162.0,-1.0
2773848,1354.41796875,132.0,1.0
2773887,1354.43701171875,133.0,3.0
2774729,1354.84814453125,132.0,3.0
2778573,1356.72509765625,34.0,-1.0
2779629,1357.24072265625,42.0,-1.0
2780180,1357.509765625,131.0,0.0
2780216,1357.52734375,131.0,3.0
2780229,1357.53369140625,131.0,2.0
2780325,1357.58056640625,98.0,-1.0
2780643,1357.73583984375,132.0,0.0
2780675,1357.75146484375,133.0,2.0
2780762,1357.7939453125,133.0,3.0
2780778,1357.8017578125,132.0,3.0
2782696,1358.73828125,132.0,2.0
2785263,1359.99169921875,34.0,-1.0
2786319,1360.50732421875,50.0,-1.0
2786558,1360.6240234375,131.0,3.0
2786912,1360.796875,133.0,3.0
2786983,1360.83154296875,131.0,0.0
2787026,1360.8525390625,131.0,2.0
2787053,1360.86572265625,132.0,3.0
2787099,1360.88818359375,98.0,-1.0
2787336,1361.00390625,133.0,2.0
2787337,1361.00439453125,132.0,0.0
2789301,1361.96337890625,132.0,2.0
2792055,1363.30810546875,34.0,-1.0
2793112,1363.82421875,35.0,-1.0
2793733,1364.12744140625,131.0,1.0
2793815,1364.16748046875,131.0,3.0
2793851,1364.18505859375,162.0,-1.0
2794054,1364.2841796875,132.0,1.0
2794081,1364.29736328125,133.0,3.0
2794789,1364.64306640625,132.0,3.0
2798779,1366.59130859375,34.0,-1.0
2799836,1367.107421875,38.0,-1.0
2800346,1367.3564453125,131.0,1.0
2800408,1367.38671875,131.0,3.0
2800467,1367.41552734375,162.0,-1.0
2800580,1367.470703125,132.0,1.0
2800646,1367.5029296875,133.0,3.0
2801087,1367.71826171875,132.0,3.0
2805401,1369.82470703125,34.0,-1.0
2806458,1370.3408203125,50.0,-1.0
2807108,1370.658203125,131.0,0.0
2807139,1370.67333984375,131.0,2.0
2807225,1370.71533203125,131.0,3.0
2807256,1370.73046875,98.0,-1.0
2807430,1370.8154296875,132.0,0.0
2807490,1370.8447265625,133.0,2.0
2807619,1370.90771484375,133.0,3.0
2807620,1370.908203125,132.0,3.0
2809154,1371.6572265625,132.0,2.0
2812194,1373.1416015625,34.0,-1.0
2813250,1373.6572265625,42.0,-1.0
2813790,1373.9208984375,131.0,0.0
2813910,1373.9794921875,131.0,2.0
2813991,1374.01904296875,131.0,3.0
2814006,1374.0263671875,98.0,-1.0
2814085,1374.06494140625,132.0,0.0
2814174,1374.1083984375,133.0,2.0
2814395,1374.21630859375,133.0,3.0
2814414,1374.2255859375,132.0,3.0
2814762,1374.3955078125,132.0,2.0
2818952,1376.44140625,34.0,-1.0
2820008,1376.95703125,42.0,-1.0
2820530,1377.2119140625,131.0,0.0
2820597,1377.24462890625,131.0,2.0
2820651,1377.27099609375,131.0,3.0
2820701,1377.29541015625,98.0,-1.0
2820774,1377.3310546875,132.0,0.0
2820889,1377.38720703125,133.0,2.0
2821043,1377.46240234375,133.0,3.0
2821044,1377.462890625,132.0,3.0
2821734,1377.7998046875,132.0,2.0
2825642,1379.7080078125,34.0,-1.0
2826698,1380.2236328125,38.0,-1.0
2827197,1380.46728515625,131.0,1.0
2827257,1380.49658203125,131.0,3.0
2827328,1380.53125,162.0,-1.0
2827526,1380.6279296875,133.0,3.0
2827629,1380.67822265625,132.0,1.0
2828783,1381.24169921875,132.0,3.0
2832263,1382.94091796875,34.0,-1.0
2833320,1383.45703125,50.0,-1.0
2833866,1383.7236328125,131.0,0.0
2833933,1383.75634765625,131.0,2.0
2834034,1383.8056640625,98.0,-1.0
2834147,1383.86083984375,132.0,0.0
2834216,1383.89453125,133.0,2.0
2834648,1384.10546875,132.0,2.0
2838988,1386.224609375,34.0,-1.0
2840044,1386.740234375,50.0,-1.0
2840581,1387.00244140625,131.0,0.0
2840645,1387.03369140625,131.0,2.0
2840678,1387.0498046875,131.0,3.0
2840732,1387.076171875,98.0,-1.0
2840819,1387.11865234375,132.0,0.0
2840888,1387.15234375,133.0,2.0
2840977,1387.19580078125,133.0,3.0
2840978,1387.1962890625,132.0,3.0
2841405,1387.40478515625,132.0,2.0
2845678,1389.4912109375,34.0,-1.0
2846734,1390.0068359375,35.0,-1.0
2847292,1390.279296875,131.0,1.0
2847370,1390.3173828125,131.0,3.0
2847419,1390.34130859375,162.0,-1.0
2847514,1390.3876953125,132.0,1.0
2847580,1390.419921875,133.0,3.0
2847935,1390.59326171875,132.0,3.0
2852368,1392.7578125,34.0,-1.0
2853424,1393.2734375,35.0,-1.0
2854010,1393.5595703125,131.0,0.0
2854122,1393.6142578125,131.0,2.0
2854163,1393.63427734375,131.0,1.0
2854169,1393.63720703125,132.0,0.0
2854245,1393.67431640625,131.0,3.0
2854271,1393.68701171875,162.0,-1.0
2854273,1393.68798828125,133.0,2.0
2854420,1393.759765625,132.0,1.0
2854436,1393.767578125,133.0,3.0
2854639,1393.86669921875,132.0,2.0
2854896,1393.9921875,132.0,3.0
2859194,1396.0908203125,34.0,-1.0
2860251,1396.60693359375,42.0,-1.0
2860820,1396.884765625,131.0,0.0
2860932,1396.939453125,131.0,2.0
2860948,1396.947265625,133.0,3.0
2860948,1396.947265625,131.0,3.0
2861057,1397.00048828125,98.0,-1.0
2861167,1397.05419921875,132.0,0.0
2861223,1397.08154296875,133.0,2.0
2861331,1397.13427734375,132.0,3.0
2861708,1397.318359375,132.0,2.0
2865986,1399.4072265625,34.0,-1.0
2867043,1399.92333984375,50.0,-1.0
2867638,1400.2138671875,131.0,0.0
2867753,1400.27001953125,131.0,2.0
2867781,1400.28369140625,131.0,3.0
2867882,1400.3330078125,98.0,-1.0
2867925,1400.35400390625,132.0,0.0
2868019,1400.39990234375,133.0,2.0
2868136,1400.45703125,133.0,3.0
2868137,1400.45751953125,132.0,3.0
2868506,1400.6376953125,132.0,2.0
2872813,1402.74072265625,34.0,-1.0
2873870,1403.2568359375,35.0,-1.0
2874550,1403.5888671875,131.0,1.0
2874577,1403.60205078125,131.0,3.0
2874647,1403.63623046875,162.0,-1.0
2874728,1403.67578125,132.0,1.0
2874807,1403.71435546875,133.0,3.0
2875224,1403.91796875,132.0,3.0
2879571,1406.04052734375,34.0,-1.0
2880628,1406.556640625,38.0,-1.0
2881192,1406.83203125,131.0,1.0
2881271,1406.87060546875,131.0,3.0
2881320,1406.89453125,162.0,-1.0
2881380,1406.923828125,132.0,1.0
2881469,1406.96728515625,133.0,3.0
2881813,1407.13525390625,132.0,3.0
2882144,1407.296875,192.0,-1.0
2886261,1409.30712890625,34.0,-1.0
2887318,1409.8232421875,50.0,-1.0
2887942,1410.1279296875,131.0,0.0
2888035,1410.17333984375,131.0,2.0
2888092,1410.201171875,133.0,3.0
2888092,1410.201171875,131.0,3.0
2888167,1410.23779296875,98.0,-1.0
2888192,1410.25,132.0,0.0
2888279,1410.29248046875,133.0,2.0
2888322,1410.3134765625,132.0,3.0
2888756,1410.525390625,132.0,2.0
2893122,1412.6572265625,34.0,-1.0
2894179,1413.17333984375,50.0,-1.0
2894619,1413.38818359375,131.0,1.0
2894759,1413.45654296875,132.0,1.0
2894771,1413.46240234375,131.0,3.0
2894840,1413.49609375,131.0,1.0
2894911,1413.53076171875,133.0,3.0
2894929,1413.53955078125,131.0,0.0
2894950,1413.5498046875,132.0,1.0
2894998,1413.5732421875,131.0,2.0
2895072,1413.609375,98.0,-1.0
2895220,1413.681640625,132.0,0.0
2895232,1413.6875,132.0,3.0
2895276,1413.708984375,133.0,2.0
2897250,1414.6728515625,132.0,2.0
2900017,1416.02392578125,34.0,-1.0
2901074,1416.5400390625,42.0,-1.0
2901698,1416.8447265625,131.0,0.0
2901739,1416.86474609375,131.0,2.0
2901754,1416.8720703125,131.0,3.0
2901754,1416.8720703125,133.0,3.0
2901880,1416.93359375,132.0,3.0
2901891,1416.93896484375,132.0,0.0
2901905,1416.94580078125,98.0,-1.0
2901995,1416.98974609375,133.0,2.0
2902422,1417.1982421875,132.0,2.0
2906844,1419.357421875,34.0,-1.0
2907900,1419.873046875,35.0,-1.0
2908589,1420.20947265625,131.0,1.0
2908696,1420.26171875,131.0,3.0
2908744,1420.28515625,162.0,-1.0
2908842,1420.3330078125,132.0,1.0
2908893,1420.35791015625,133.0,3.0
2909318,1420.5654296875,132.0,3.0
2913670,1422.6904296875,34.0,-1.0
2914727,1423.20654296875,35.0,-1.0
2915449,1423.55908203125,131.0,1.0
2915528,1423.59765625,131.0,3.0
2915577,1423.62158203125,162.0,-1.0
2915612,1423.638671875,132.0,1.0
2915704,1423.68359375,133.0,3.0
2916071,1423.86279296875,132.0,3.0
2920531,1426.04052734375,34.0,-1.0
2921588,1426.556640625,42.0,-1.0
2922194,1426.8525390625,131.0,0.0
2922269,1426.88916015625,131.0,2.0
2922297,1426.90283203125,131.0,3.0
2922366,1426.9365234375,132.0,0.0
2923392,1427.4375,131.0,0.0
2923492,1427.486328125,98.0,-1.0
2923695,1427.58544921875,132.0,0.0
2923749,1427.61181640625,133.0,2.0
2923862,1427.6669921875,133.0,3.0
2923863,1427.66748046875,132.0,3.0
2924209,1427.83642578125,132.0,2.0
2928415,1429.89013671875,34.0,-1.0
2929472,1430.40625,42.0,-1.0
2930180,1430.751953125,131.0,0.0
2930192,1430.7578125,131.0,2.0
2930237,1430.77978515625,131.0,3.0
2930306,1430.8134765625,98.0,-1.0
2930393,1430.85595703125,132.0,0.0
2930499,1430.90771484375,133.0,2.0
2930632,1430.97265625,133.0,3.0
2930633,1430.97314453125,132.0,3.0
2931339,1431.31787109375,132.0,2.0
2935242,1433.2236328125,34.0,-1.0
2936299,1433.73974609375,50.0,-1.0
2936955,1434.06005859375,131.0,0.0
2937010,1434.0869140625,131.0,2.0
2937119,1434.14013671875,98.0,-1.0
2937202,1434.1806640625,132.0,0.0
2937306,1434.2314453125,133.0,2.0
2937731,1434.43896484375,132.0,2.0
2942069,1436.55712890625,34.0,-1.0
2943125,1437.07275390625,35.0,-1.0
2943942,1437.4716796875,131.0,1.0
2944031,1437.51513671875,131.0,3.0
2944077,1437.53759765625,162.0,-1.0
2944164,1437.580078125,132.0,1.0
2944246,1437.6201171875,133.0,3.0
2944634,1437.8095703125,132.0,3.0
2949032,1439.95703125,34.0,-1.0
2950088,1440.47265625,38.0,-1.0
2950753,1440.79736328125,131.0,1.0
2950826,1440.8330078125,131.0,3.0
2950894,1440.8662109375,162.0,-1.0
2950953,1440.89501953125,132.0,1.0
2951040,1440.9375,133.0,3.0
2951400,1441.11328125,132.0,3.0
2955824,1443.2734375,34.0,-1.0
2956881,1443.78955078125,42.0,-1.0
2957641,1444.16064453125,131.0,0.0
2957642,1444.1611328125,131.0,2.0
2957805,1444.24072265625,131.0,3.0
2957832,1444.25390625,98.0,-1.0
2957888,1444.28125,132.0,0.0
2957982,1444.3271484375,133.0,2.0
2958187,1444.42724609375,133.0,3.0
2958188,1444.427734375,132.0,3.0
2958830,1444.7412109375,132.0,2.0
2962787,1446.67333984375,34.0,-1.0
2963844,1447.189453125,42.0,-1.0
2964404,1447.462890625,131.0,0.0
2964443,1447.48193359375,131.0,2.0
2964521,1447.52001953125,131.0,3.0
2964557,1447.53759765625,98.0,-1.0
2964594,1447.5556640625,132.0,0.0
2964704,1447.609375,133.0,2.0
2964825,1447.66845703125,133.0,3.0
2964826,1447.6689453125,132.0,3.0
2965178,1447.8408203125,132.0,2.0
2965381,1447.93994140625,192.0,-1.0
2969512,1449.95703125,34.0,-1.0
2970568,1450.47265625,42.0,-1.0
2971189,1450.77587890625,131.0,0.0
2971229,1450.79541015625,131.0,2.0
2971285,1450.82275390625,131.0,3.0
2971285,1450.82275390625,133.0,3.0
2971379,1450.86865234375,98.0,-1.0
2971388,1450.873046875,132.0,0.0
2971500,1450.927734375,133.0,2.0
2971615,1450.98388671875,132.0,3.0
2972038,1451.1904296875,132.0,2.0
2976303,1453.27294921875,34.0,-1.0
2977360,1453.7890625,35.0,-1.0
2977880,1454.04296875,131.0,1.0
2977906,1454.0556640625,131.0,3.0
2977981,1454.09228515625,162.0,-1.0
2978151,1454.17529296875,133.0,3.0
2978190,1454.1943359375,132.0,1.0
2978805,1454.49462890625,192.0,-1.0
2978818,1454.5009765625,132.0,3.0
2982926,1456.5068359375,34.0,-1.0
2983982,1457.0224609375,38.0,-1.0
2984564,1457.306640625,131.0,1.0
2984625,1457.33642578125,131.0,3.0
2984704,1457.375,162.0,-1.0
2984840,1457.44140625,133.0,3.0
2984855,1457.44873046875,132.0,1.0
2985194,1457.6142578125,132.0,3.0
2985528,1457.77734375,192.0,-1.0
2989650,1459.7900390625,34.0,-1.0
2990706,1460.3056640625,42.0,-1.0
2991393,1460.64111328125,131.0,0.0
2991456,1460.671875,131.0,2.0
2991501,1460.69384765625,131.0,3.0
2991501,1460.69384765625,133.0,3.0
2991591,1460.73779296875,98.0,-1.0
2991610,1460.7470703125,132.0,0.0
2991706,1460.7939453125,133.0,2.0
2991805,1460.84228515625,132.0,3.0
2992133,1461.00244140625,132.0,2.0
2996545,1463.15673828125,34.0,-1.0
2997601,1463.67236328125,50.0,-1.0
2998195,1463.96240234375,131.0,0.0
2998244,1463.986328125,131.0,2.0
2998292,1464.009765625,131.0,3.0
2998387,1464.05615234375,132.0,0.0
2999269,1464.48681640625,131.0,0.0
2999367,1464.53466796875,98.0,-1.0
2999696,1464.6953125,132.0,0.0
2999717,1464.70556640625,133.0,2.0
2999908,1464.798828125,133.0,3.0
2999965,1464.82666015625,132.0,3.0
3000212,1464.947265625,132.0,2.0
3004292,1466.939453125,34.0,-1.0
3005349,1467.45556640625,38.0,-1.0
3005831,1467.69091796875,131.0,1.0
3005938,1467.7431640625,131.0,3.0
